   2.0000000e+00   2.2946277e-01  -7.9720813e-01  -1.6492600e+00  -2.4998261e+00  -2.8176170e+00  -3.0929699e+00  -3.0788916e+00  -2.8059620e+00  -2.6107763e+00  -2.2844559e+00  -1.7617549e+00  -1.1283939e+00  -6.5487223e-01  -4.4341148e-01  -3.0701191e-01  -9.9027850e-02   2.3837478e-01   4.7622561e-01   4.3005144e-01   3.9013241e-01   4.9731283e-01   5.0317415e-01   3.9810086e-01   4.2089336e-01   5.0261116e-01   4.6960728e-01   4.2697921e-01   4.0843463e-01   3.5348355e-01   3.4704140e-01   3.7474969e-01   3.6481127e-01   4.2128788e-01   4.9188201e-01   4.2062611e-01   3.5923294e-01   3.6368516e-01   2.9374097e-01   2.7591109e-01   3.6148068e-01   3.5376493e-01   2.7876450e-01   2.9603653e-01   3.4411733e-01   2.9964884e-01   2.7557605e-01   2.8741710e-01   2.1027338e-01   2.0605132e-01   2.8318927e-01   2.1795338e-01   1.6271008e-01   2.4315284e-01   2.2940371e-01   1.3717509e-01   1.5486530e-01   1.4416141e-01   6.6296884e-02   1.4655859e-01   2.1340740e-01   5.9581869e-02  -1.4265973e-02   5.0013007e-02   4.8341711e-02   4.4065921e-02   9.5192653e-02   1.9753083e-01   2.8797494e-01   2.9794991e-01   2.9623837e-01   3.0460186e-01   3.3823168e-01   3.8987123e-01   3.9252201e-01   3.7835984e-01   4.1655641e-01   4.9308871e-01   5.0217513e-01   4.6886185e-01   5.2767518e-01   5.7192398e-01   5.4352776e-01   5.7806941e-01   6.1594063e-01   6.1337324e-01   6.4117598e-01   5.9547334e-01   4.9960979e-01   5.6452458e-01   6.5047011e-01   5.8081056e-01   5.3957244e-01   5.8121874e-01   5.8837321e-01   5.9872972e-01   6.7516072e-01   7.3211034e-01   6.7424183e-01   5.8700168e-01   5.9401881e-01   6.1796190e-01   5.6351556e-01   5.6140832e-01   6.6112046e-01   7.0235715e-01   6.6702254e-01   6.4819242e-01   6.2376683e-01   6.1409282e-01   6.5140101e-01   6.7551938e-01   6.7838081e-01   6.0908085e-01   5.2265870e-01   5.4105633e-01   5.1789066e-01   4.7690205e-01   5.8385401e-01   6.2960491e-01   4.6480589e-01   3.5860357e-01   4.3830857e-01   4.5548672e-01   4.3127741e-01   5.6056655e-01   5.9535948e-01   4.0144347e-01   1.1078068e-01  -3.8066710e-01  -9.8440324e-01  -1.5710497e+00  -2.1260719e+00  -2.7449658e+00  -3.4137475e+00  -3.4304678e+00  -2.9533540e+00  -2.1040300e+00  -1.0215049e+00  -8.0941458e-01   2.3898544e-01
   1.0000000e+00  -1.4792304e+00  -2.7805321e+00  -4.0814734e+00  -4.2949562e+00  -3.6889371e+00  -2.6190517e+00  -1.6845071e+00  -1.6100835e+00  -7.9182910e-01  -7.6276513e-02  -1.4665499e-01  -3.3752948e-02  -9.9780447e-02  -1.9358947e-01   1.8943703e-02  -2.2602274e-01  -3.7819949e-01  -1.9022138e-01  -1.6922432e-01  -2.6706701e-01  -3.2685846e-01  -2.8777255e-01  -1.9055081e-01  -2.1120993e-01  -4.7452522e-01  -5.2151275e-01  -4.5096170e-01  -5.2444652e-01  -6.1386167e-01  -5.4457988e-01  -6.3873407e-01  -7.7953807e-01  -7.3360511e-01  -8.4900233e-01  -1.0764722e+00  -8.7123137e-01  -8.0773979e-01  -7.9191386e-01  -9.0727946e-01  -8.9401329e-01  -9.4080658e-01  -8.0240893e-01  -7.5198650e-01  -6.5946837e-01  -7.4020595e-01  -5.7782056e-01  -2.6096535e-01  -3.1798261e-01  -1.4820650e-01  -4.0218615e-02   2.1450213e-02   4.7599253e-02  -3.2951045e-03   1.3384651e-02   5.0356857e-02   1.8031246e-01   1.6727594e-01   1.2062596e-01   2.3575074e-01   1.6153884e-01   1.3006703e-01   1.3992210e-01  -7.0526192e-03   9.9665116e-02   1.0919211e-01   1.4660499e-01   2.7119465e-01   2.4105705e-01   2.1218138e-01   3.6485090e-01   2.8858035e-01   4.1673536e-01   5.1856852e-01   4.5660607e-01   4.8509146e-01   4.5559090e-01   5.5957160e-01   5.7461989e-01   5.7165417e-01   5.1979365e-01   6.4314073e-01   6.8140226e-01   5.6763721e-01   4.0125091e-01   5.1739724e-01   5.4513816e-01   5.9051920e-01   5.6151088e-01   4.5424520e-01   4.7066143e-01   5.1766622e-01   3.7419562e-01   4.4736070e-01   6.6641096e-01   6.8798044e-01   9.1259329e-01   9.0816630e-01   1.2012334e+00   1.3480182e+00   1.6510199e+00   1.9325262e+00   2.1372073e+00   2.2245673e+00   2.1270184e+00   2.0684460e+00   1.8592682e+00   1.7203903e+00   1.4736746e+00   1.2200697e+00   8.0243857e-01   4.7804056e-01  -6.7828283e-03  -2.3027818e-01  -2.2722582e-01  -2.7150722e-01  -1.7321840e-01  -3.2244880e-01  -2.9499191e-01  -1.7556336e-01  -3.7181200e-01  -2.0783453e-01  -2.5041377e-01  -2.8782031e-01  -3.7088009e-01  -2.2654510e-01  -2.1328794e-01  -3.1603197e-01  -2.1376360e-01   1.3307383e-01   8.7041723e-01   1.2699181e+00   9.1849583e-01   5.6377461e-01   5.4906115e-01   3.9886440e-01   2.3775999e-01   4.8507599e-01   3.7128133e-01   4.5591660e-01   6.9440201e-01
   1.0000000e+00  -1.0090226e+00  -2.2026746e+00  -3.2642135e+00  -4.3069154e+00  -4.2218413e+00  -3.4229126e+00  -2.4118377e+00  -1.7698815e+00  -1.5691248e+00  -8.4462200e-01  -4.8101455e-01  -5.7199594e-01  -5.1140266e-01  -5.5103454e-01  -5.2846699e-01  -5.8316823e-01  -5.6906548e-01  -5.3692304e-01  -5.4010993e-01  -5.0203212e-01  -5.8449433e-01  -5.9058482e-01  -5.8217938e-01  -5.9684971e-01  -6.7853581e-01  -6.8049927e-01  -6.8166783e-01  -6.6698033e-01  -6.6605181e-01  -7.4513278e-01  -7.4043486e-01  -8.6156253e-01  -9.0703806e-01  -8.3910115e-01  -8.6022970e-01  -8.8895342e-01  -8.1853507e-01  -8.0781822e-01  -8.3932028e-01  -7.0774892e-01  -5.9272796e-01  -5.5484876e-01  -4.2561869e-01  -3.6141879e-01  -2.3860871e-01  -2.0059745e-01  -1.5918284e-01  -1.1785966e-01  -4.1154917e-02  -1.3566661e-02  -5.8051994e-04   1.6545424e-02   3.2731379e-02   3.8143062e-03   8.1259727e-02   7.1761859e-03   1.1941137e-01   6.3874348e-02   9.8265456e-02   8.9316163e-02   1.1614039e-01   1.7969820e-01   1.8752075e-01   2.6860492e-01   3.1199537e-01   2.7852706e-01   3.5042184e-01   3.9386269e-01   4.7571055e-01   5.1856405e-01   5.9990824e-01   6.4640319e-01   6.3476012e-01   7.2108419e-01   7.3021793e-01   7.2495335e-01   7.4062761e-01   6.5720854e-01   7.0527809e-01   7.2152184e-01   6.5173470e-01   6.1708190e-01   6.3595462e-01   6.0208696e-01   5.6163893e-01   4.9924995e-01   5.2862468e-01   5.0997087e-01   4.9300164e-01   4.7599425e-01   4.4054968e-01   4.7128496e-01   4.7155335e-01   5.2630519e-01   4.8677270e-01   5.2324470e-01   5.8057939e-01   7.7745290e-01   9.2403412e-01   1.0047794e+00   1.1654778e+00   1.2299139e+00   1.4283821e+00   1.6630144e+00   1.6024893e+00   1.5728262e+00   1.4989598e+00   1.3355748e+00   1.1977726e+00   1.0283336e+00   8.3496807e-01   5.2460887e-01   2.7937946e-01   7.0588577e-02  -6.4093178e-02   6.4414526e-03  -2.6930246e-02  -6.2634338e-02   1.3887149e-03  -2.2964509e-02  -7.7696155e-02  -4.7549395e-02  -8.7314101e-02  -6.8698793e-02  -8.3834741e-02  -9.6725038e-02  -8.7047017e-02  -2.9224862e-02   5.5611564e-02   3.2924250e-01   9.1306938e-01   1.2050202e+00   1.2865446e+00   1.5717900e+00   1.6771492e+00   1.4793773e+00   9.9282173e-01   6.9076966e-01   7.3401039e-01  -2.9969187e-02
   2.0000000e+00   1.8126166e+00   9.4676715e-01   1.4204473e-01  -3.9568227e-01  -9.2272402e-01  -1.1577570e+00  -1.3448964e+00  -1.4650015e+00  -1.4468155e+00  -1.4290227e+00  -1.2981614e+00  -1.0094958e+00  -4.9330128e-01  -3.0059207e-03   9.1482889e-02   2.0130677e-02   1.3700590e-01   4.3763533e-01   7.2247753e-01   8.3168243e-01   8.0443614e-01   7.7818481e-01   7.5707969e-01   6.9656507e-01   6.6056199e-01   6.4975946e-01   6.3039593e-01   6.7870869e-01   7.0150495e-01   6.1170461e-01   6.0104696e-01   6.5992476e-01   6.5412649e-01   6.3704661e-01   6.3664672e-01   6.3085480e-01   5.5250439e-01   4.0709258e-01   3.6587794e-01   4.3981789e-01   4.6930157e-01   4.6088170e-01   4.4006692e-01   4.1487841e-01   4.3917203e-01   3.6796302e-01   2.5641919e-01   3.0156981e-01   3.6722930e-01   3.8746668e-01   4.0012192e-01   3.9672086e-01   3.8422474e-01   3.0719197e-01   2.4457423e-01   2.8491015e-01   3.3113441e-01   2.5920283e-01   1.6657708e-01   2.6462151e-01   2.9719200e-01   1.8374716e-01   1.9699271e-01   1.7266993e-01   1.8460418e-01   2.9221676e-01   2.2285594e-01   1.5380122e-01   1.6179036e-01   1.6587602e-01   2.6577491e-01   3.2305701e-01   2.6260477e-01   3.1481782e-01   4.6288634e-01   4.8820536e-01   4.3295098e-01   4.1308490e-01   4.2274812e-01   3.9092273e-01   3.1673820e-01   3.4381184e-01   4.6073622e-01   4.7424465e-01   4.1828042e-01   4.3238220e-01   4.4955090e-01   4.3310009e-01   4.1537818e-01   3.9723806e-01   4.1148292e-01   4.1912924e-01   3.8603098e-01   4.0109353e-01   4.2596728e-01   3.5033120e-01   2.8338360e-01   2.6053171e-01   2.4398840e-01   2.4887634e-01   2.3858141e-01   3.1491783e-01   3.7537865e-01   3.3354762e-01   3.2934298e-01   2.3809785e-01   1.8389024e-01   2.7249065e-01   2.5693521e-01   2.1715194e-01   2.3635533e-01   2.4708569e-01   2.4398840e-01   2.5390215e-01   3.0365447e-01   2.3458163e-01   6.5089783e-02  -1.4697327e-02   5.3032771e-04   1.0058369e-01   1.6832158e-01   1.0628883e-01   5.5026254e-02  -5.1224081e-03  -1.8504882e-01  -2.8500760e-01  -2.5710115e-01  -2.2190906e-01  -2.3937368e-01  -5.5890814e-01  -1.1532272e+00  -1.7122235e+00  -2.3048377e+00  -2.8549210e+00  -3.0210714e+00  -3.8273687e+00  -4.5258233e+00  -4.1128139e+00  -4.3294998e+00  -2.2219113e+00
   1.0000000e+00  -2.9485496e-01  -1.8887391e+00  -3.1437224e+00  -3.9524367e+00  -4.0449252e+00  -3.7425371e+00  -3.0764555e+00  -1.6531244e+00  -1.0189731e+00  -1.1693370e+00  -6.1979007e-01   3.3550360e-02  -1.9832912e-01  -3.5676862e-02   3.9959067e-01   2.3760629e-01   1.9766139e-01   1.9600070e-01   1.6032604e-01  -1.0358157e-01   4.8083749e-02   1.7561644e-01  -1.5441911e-01  -2.3802838e-01   2.2341967e-01   4.0196013e-01   2.7765699e-01   1.8560125e-01   2.2134202e-01   8.0105587e-02   5.0119286e-02  -1.0636514e-02  -6.0650159e-02   4.8439664e-02   4.4799147e-02  -4.1136250e-02   1.9759451e-01   2.7337578e-01   2.2652263e-01   2.3521477e-01   2.9274362e-01   1.6209416e-01   1.3613779e-01   2.8774669e-01   3.2910351e-01   3.0411257e-01   3.2807501e-01   2.0866476e-01   3.4836603e-01   6.2390092e-01   4.0415597e-01   1.4616826e-01   2.8191580e-01   5.9260589e-01   5.4335540e-01   4.6895218e-01   2.8404245e-01   3.7031228e-01   3.4450243e-01   1.7389828e-01   3.3482698e-01   4.8161793e-01   3.4971499e-01   2.8261196e-01   1.5798590e-01   3.4669003e-01   3.8837753e-01   5.4672490e-01   7.2268033e-01   6.3844462e-01   5.5365615e-01   4.3251461e-01   4.3477862e-01   5.2699981e-01   7.7580574e-01   8.8156217e-01   5.6952799e-01   3.5229487e-01  -8.3147226e-02  -1.7994361e-01   2.6693280e-02   1.6539665e-01  -1.4407055e-01  -3.8840329e-01  -2.3149168e-01   1.9009179e-01   1.5493106e-01  -1.3382749e-01  -2.3537368e-01   7.7978023e-02   3.7195634e-01   3.2378326e-01  -1.0828871e-01   1.3129055e-01   4.6702041e-01   8.7994664e-01   1.2146603e+00   1.0981374e+00   1.0177237e+00   1.3731429e+00   1.7480011e+00   2.1611568e+00   2.3485472e+00   1.9207707e+00   1.7402977e+00   1.6624133e+00   1.2159160e+00   8.9209744e-01   4.0283176e-01  -2.7480992e-02  -2.2044027e-01  -6.4050748e-01  -1.1443589e+00  -7.2012563e-01  -1.9347082e-01  -1.7971949e-01  -3.8638798e-01  -4.5836124e-01  -5.2301111e-01  -3.9708183e-01  -4.1320597e-01  -5.0465081e-01  -6.5020432e-01  -5.9059246e-01  -4.4573594e-01  -3.6496200e-01  -2.2977620e-01  -2.8020454e-01   4.0414184e-01   1.4090886e+00   1.2460006e+00   4.0457931e-01  -2.6627745e-01  -9.9119267e-01  -1.5349729e+00  -1.4903908e+00  -8.0460000e-01  -2.7805947e-01  -9.2337415e-01  -2.7598060e+00
   1.0000000e+00  -1.6635438e+00  -4.7319297e+00  -4.4602899e+00  -4.4034217e+00  -3.3577488e+00  -2.1079305e+00  -1.6223415e+00  -1.2632911e+00  -2.7637853e-01  -1.2681206e-01  -1.9734356e-01  -2.1337158e-01  -1.9244095e-01  -2.2582412e-01  -1.3134546e-01  -1.4287315e-01  -1.5486276e-01  -1.3545408e-01  -1.5966357e-01  -2.0675504e-01  -3.1830422e-01  -3.4584518e-01  -4.2890370e-01  -4.5483004e-01  -3.9087771e-01  -4.6426608e-01  -5.0424412e-01  -4.9343086e-01  -6.2461980e-01  -6.6885613e-01  -6.1046770e-01  -6.3362691e-01  -6.6390241e-01  -6.4301280e-01  -6.5654940e-01  -6.9826279e-01  -6.5873528e-01  -6.6945213e-01  -5.4837816e-01  -5.1946827e-01  -4.4321176e-01  -3.8821101e-01  -2.3382845e-01  -9.1901915e-02  -1.3779427e-01  -8.3795659e-02  -3.6954762e-02   6.1670726e-02   1.2395263e-01   1.1634022e-01   2.1528685e-01   1.4195555e-01   1.3005416e-01   2.1986069e-01   2.0461593e-01   1.4320118e-01   2.1696349e-01   2.6310123e-01   2.8604959e-01   3.0303783e-01   2.5579776e-01   2.7895937e-01   2.5267950e-01   3.5991991e-01   2.4566158e-01   4.1178994e-01   4.5120298e-01   4.4423577e-01   5.0302979e-01   4.5671213e-01   4.3960132e-01   5.5271383e-01   5.8479505e-01   6.0679824e-01   5.9618556e-01   5.8188180e-01   5.7146332e-01   4.2535602e-01   5.8277458e-01   5.0790699e-01   4.9386994e-01   4.2732918e-01   3.5681046e-01   3.9481186e-01   3.4312607e-01   3.8211712e-01   3.9152051e-01   3.6503344e-01   3.3650608e-01   2.9669219e-01   2.4603223e-01   2.4195787e-01   2.5845446e-01   3.4745334e-01   3.1713645e-01   2.4781428e-01   3.3065529e-01   3.4316267e-01   5.1560229e-01   7.5424928e-01   1.1235449e+00   1.2473229e+00   1.3271616e+00   1.4832791e+00   1.7834464e+00   1.7371670e+00   1.7592182e+00   1.5815999e+00   1.3514899e+00   1.2137402e+00   9.4544974e-01   6.7557208e-01   2.7831995e-01  -9.6219538e-02  -3.9408976e-01  -2.5027587e-01  -3.0793667e-01  -2.5494546e-01  -2.6757034e-01  -3.1807043e-01  -2.1422919e-01  -2.1397524e-01  -1.8038300e-01  -2.8586735e-01  -2.2941668e-01  -2.0386594e-01  -1.5428933e-01  -1.4765303e-01  -1.6735776e-01   1.1712793e-01   7.4665151e-01   1.3502220e+00   1.4809103e+00   1.5218938e+00   1.3968788e+00   8.2304051e-01   2.8676466e-01   2.0232547e-01   7.5671396e-01  -2.2442324e+00
   2.0000000e+00  -2.0452640e+00  -2.6470621e+00  -2.3383123e+00  -2.9041472e+00  -2.5187512e+00  -2.2016271e+00  -1.8756441e+00  -1.3533888e+00  -9.9145341e-01  -6.3329062e-01  -5.5127939e-01  -5.1589916e-01  -2.6929107e-01   1.5142210e-01   4.8574117e-01   5.3569859e-01   5.8436686e-01   5.4817239e-01   4.0660996e-01   5.0445669e-01   5.8205818e-01   5.1159404e-01   4.8423218e-01   4.8237664e-01   5.3768687e-01   5.7525574e-01   5.2741054e-01   5.2439833e-01   5.8832051e-01   6.1617832e-01   5.7685137e-01   4.8786224e-01   4.2696878e-01   4.7568396e-01   5.3684713e-01   5.4018626e-01   5.0214053e-01   4.6868439e-01   4.5122847e-01   3.6303808e-01   3.6520919e-01   4.4679201e-01   3.8331283e-01   4.1982377e-01   5.2211048e-01   4.4060261e-01   3.6091178e-01   3.1100483e-01   2.4491765e-01   2.1224957e-01   2.2969826e-01   2.6500016e-01   2.1570419e-01   2.0849569e-01   2.5352591e-01   2.2320019e-01   2.0269846e-01   1.3006727e-01   5.7942198e-02   1.1349239e-01   1.0926835e-01   3.2756860e-02   1.6671190e-04   4.5881186e-02   1.0430182e-01   3.2120119e-02  -3.3194964e-02  -1.0828174e-02   3.3363884e-04   6.4927606e-02   1.4290559e-01   1.2535301e-01   1.2048933e-01   1.5798368e-01   1.2217024e-01   1.0790179e-01   1.9981991e-01   2.5268993e-01   2.5873277e-01   3.2343306e-01   3.8803123e-01   4.0969917e-01   4.5411732e-01   5.1407167e-01   5.8573096e-01   6.7703091e-01   6.6349705e-01   5.7051961e-01   6.0327326e-01   6.8048864e-01   6.7627840e-01   6.6149394e-01   6.6017675e-01   7.1620143e-01   7.5963884e-01   7.7208106e-01   8.4148961e-01   8.3329720e-01   7.8149275e-01   7.7317715e-01   7.4100453e-01   7.4327052e-01   7.6673157e-01   7.8282253e-01   8.3097721e-01   8.0638933e-01   7.2596771e-01   7.6720007e-01   7.8895793e-01   7.2010322e-01   7.6493261e-01   7.9171502e-01   6.8481016e-01   5.4686117e-01   3.7683680e-01   2.8743032e-01   2.9703219e-01   2.1946062e-01   1.0975794e-01   8.1779781e-02   1.2837045e-02  -1.3227724e-01  -2.4784578e-01  -2.5097050e-01  -1.7842606e-01  -2.8694933e-01  -5.7744572e-01  -9.1457625e-01  -1.4568212e+00  -2.0559853e+00  -2.5054855e+00  -2.9293281e+00  -3.4395304e+00  -3.7901637e+00  -3.3646174e+00  -2.4527072e+00  -1.3570228e+00  -3.0211938e-01  -2.4075352e-03   9.8198230e-01
   1.0000000e+00  -1.0301951e+00  -3.4735073e+00  -4.2025991e+00  -4.5048823e+00  -3.3587684e+00  -2.1298999e+00  -1.8072763e+00  -1.3162154e+00  -4.4232443e-01  -2.6861795e-01  -3.5609845e-01  -3.3923791e-01  -2.8968571e-01  -3.6397671e-01  -3.7160095e-01  -1.9142285e-01  -2.9195896e-01  -2.9281075e-01  -3.1844433e-01  -3.2221872e-01  -3.0597186e-01  -3.7991279e-01  -4.5386279e-01  -4.1109498e-01  -5.3317697e-01  -4.9119723e-01  -4.8082159e-01  -6.4394693e-01  -7.6115452e-01  -7.9347175e-01  -7.3912679e-01  -8.2523035e-01  -9.3616734e-01  -9.3360934e-01  -9.3989530e-01  -9.9540006e-01  -9.8608451e-01  -1.0748805e+00  -1.0292921e+00  -9.7438603e-01  -8.7911939e-01  -7.6168578e-01  -7.6981723e-01  -5.9170431e-01  -4.7939406e-01  -4.7527988e-01  -3.5897791e-01  -3.0798800e-01  -2.2210260e-01  -1.6163456e-01  -7.2268196e-02  -9.3848146e-05  -1.5091744e-02   1.6470134e-02   9.9536204e-02  -2.6065228e-02   5.2193152e-02   1.2733652e-01   4.6948206e-02   9.4522056e-02   1.2087856e-01  -8.6655759e-03   9.6895309e-02   5.7086167e-02   1.1647023e-01   3.3660248e-01   3.4673184e-01   3.1855388e-01   3.5549229e-01   3.4784006e-01   3.6380141e-01   5.3816728e-01   5.1506979e-01   5.5170599e-01   4.6924700e-01   6.0449171e-01   6.3508166e-01   5.6883933e-01   6.2683545e-01   5.8113420e-01   5.7376636e-01   4.6901590e-01   3.8890906e-01   5.4262463e-01   5.0672641e-01   4.6352947e-01   5.0896457e-01   4.1968252e-01   4.0176676e-01   4.6091256e-01   4.2622453e-01   3.4695626e-01   3.5230004e-01   4.6203687e-01   3.2183755e-01   3.2433002e-01   4.1645010e-01   5.7616422e-01   6.3118376e-01   9.7820275e-01   1.2285833e+00   1.3614923e+00   1.5061672e+00   1.7422947e+00   2.0251517e+00   2.0522062e+00   1.9480501e+00   1.8586916e+00   1.4685260e+00   1.2945888e+00   1.1014897e+00   7.8812269e-01   4.7663627e-01  -1.0344626e-02  -7.1071482e-02  -1.2248333e-01  -1.3310394e-01  -1.0149365e-01  -1.1960205e-01  -9.5672735e-02  -9.9991707e-02  -1.4649503e-03  -1.2394979e-01  -8.7953129e-02  -1.3869727e-01  -6.8478616e-02  -5.4173409e-02  -1.2399249e-01  -7.0343654e-02   1.6584838e-01   7.1176779e-01   1.5155853e+00   1.4055609e+00   1.2465515e+00   1.0985430e+00   6.5859621e-01   8.0656727e-01   5.4000634e-01   1.4198329e+00   9.3275481e-01
   1.0000000e+00  -2.0376600e+00  -3.6573746e+00  -4.0077437e+00  -4.0252646e+00  -3.8973291e+00  -3.0958823e+00  -2.0557812e+00  -1.6387297e+00  -1.3026507e+00  -7.1160674e-01  -3.6548439e-01  -3.4433207e-01  -3.4366090e-01  -3.2509774e-01  -4.0548763e-01  -2.6724368e-01  -2.1973787e-01  -3.3433737e-01  -2.5417132e-01  -2.1800137e-01  -3.1535711e-01  -2.5623847e-01  -2.8921698e-01  -2.5173489e-01  -3.2229000e-01  -3.4993027e-01  -3.5306573e-01  -3.7438025e-01  -3.5212097e-01  -3.7757484e-01  -4.6971193e-01  -4.0135946e-01  -4.5578848e-01  -5.0304541e-01  -4.5439302e-01  -4.9910566e-01  -4.2618609e-01  -4.5124455e-01  -4.2352114e-01  -3.1633910e-01  -2.6874633e-01  -1.8536207e-01  -1.6683933e-01  -7.8615010e-02  -5.3288207e-02   2.9935807e-02   9.5419126e-02   1.2250192e-01   1.7976869e-01   9.7779683e-02   2.1539525e-01   1.6283264e-01   3.1961719e-01   2.3652068e-01   2.6277520e-01   2.3557531e-01   2.4371848e-01   2.6374374e-01   2.4185867e-01   2.4353625e-01   1.2925024e-01   2.0725915e-01   2.8943560e-01   2.0839224e-01   2.0686746e-01   3.3050444e-01   3.9773859e-01   3.3520354e-01   3.8366223e-01   4.3188164e-01   4.5602240e-01   4.4067273e-01   4.9048233e-01   5.3685305e-01   5.3968088e-01   6.1628355e-01   5.0336560e-01   6.1159764e-01   6.4048281e-01   4.8722880e-01   5.4601611e-01   5.2048518e-01   4.3361710e-01   4.6006881e-01   4.3666779e-01   4.7396190e-01   4.1369830e-01   3.7978997e-01   3.3482944e-01   2.7327715e-01   3.9485058e-01   3.3744335e-01   3.9127692e-01   5.4138442e-01   6.9987171e-01   8.4495792e-01   9.9943436e-01   1.0759470e+00   1.2520323e+00   1.4615764e+00   1.7923478e+00   1.9277262e+00   1.7601456e+00   1.7755116e+00   1.5924865e+00   1.4050900e+00   1.1781255e+00   8.7849404e-01   6.9268970e-01   3.9665129e-01  -6.4932567e-02  -3.1283939e-01  -4.0236463e-01  -3.7790362e-01  -4.3363560e-01  -4.0777908e-01  -3.4020079e-01  -3.8901641e-01  -3.6643261e-01  -4.3591138e-01  -5.0335158e-01  -4.0751957e-01  -5.1452854e-01  -3.7750504e-01  -3.5455481e-01  -3.8744123e-01  -2.4312276e-01  -4.5378513e-02   3.0904882e-01   7.3274611e-01   8.3966084e-01   1.0634628e+00   1.3844853e+00   1.3454271e+00   1.0683618e+00   6.5216193e-01   8.1910572e-01   1.0883839e+00   1.8547794e-01  -2.0851706e+00
   2.0000000e+00  -3.0888644e-01  -9.1400943e-01  -1.1384312e+00  -1.4193960e+00  -1.5205549e+00  -1.8400398e+00  -1.9844905e+00  -1.9010430e+00  -1.6225713e+00  -1.2289521e+00  -8.3020672e-01  -4.5025368e-01  -3.1805018e-01  -2.5563806e-01  -8.3500158e-02   1.5791999e-01   3.7704068e-01   4.0168187e-01   3.2624724e-01   3.3117516e-01   3.7363748e-01   4.0453614e-01   4.1665585e-01   3.7471328e-01   3.5564916e-01   4.1957863e-01   4.3880195e-01   3.8680421e-01   3.7026069e-01   3.8148794e-01   3.9501160e-01   3.9633628e-01   3.3852103e-01   2.9882610e-01   3.4169302e-01   3.6576301e-01   3.5769798e-01   3.7449031e-01   3.4803148e-01   2.9114910e-01   3.1233320e-01   3.6612104e-01   3.6875348e-01   3.4293465e-01   3.0866546e-01   2.9124682e-01   3.2589509e-01   3.4392242e-01   3.2906796e-01   3.5240600e-01   4.0161067e-01   4.1761061e-01   3.5851436e-01   3.7318482e-01   4.5608866e-01   4.1731600e-01   3.7942504e-01   3.6148098e-01   3.6494883e-01   3.5446389e-01   2.9731513e-01   3.7425282e-01   4.0046608e-01   4.2222733e-01   4.5150319e-01   3.7400206e-01   4.1045064e-01   3.6299128e-01   3.2037505e-01   3.9926130e-01   3.8594433e-01   4.3530056e-01   5.0826388e-01   5.1417475e-01   5.1272617e-01   4.9878567e-01   5.0988607e-01   5.3684831e-01   5.5320934e-01   5.8569794e-01   5.9842830e-01   5.9802264e-01   5.9895403e-01   5.3316888e-01   5.2253961e-01   5.4395049e-01   5.7327706e-01   6.7554338e-01   6.4264289e-01   5.6957082e-01   5.9954573e-01   6.1393320e-01   6.3827466e-01   6.3411590e-01   5.7780485e-01   6.0883652e-01   5.9919568e-01   5.2798417e-01   5.7408562e-01   5.7464040e-01   5.5926432e-01   5.8784088e-01   5.3758860e-01   5.1124733e-01   5.4194559e-01   5.8150288e-01   6.0137160e-01   5.8282714e-01   6.2139745e-01   6.8727768e-01   6.4197249e-01   6.1318217e-01   6.2479019e-01   5.5445912e-01   4.5183387e-01   3.6964632e-01   4.2328156e-01   5.2747743e-01   5.4035673e-01   4.7439707e-01   3.0017319e-01   1.2909566e-01  -6.1177262e-02  -3.6508451e-01  -5.0718877e-01  -4.8548009e-01  -6.4149974e-01  -8.3764142e-01  -1.0787311e+00  -1.5262885e+00  -2.0912851e+00  -2.7906789e+00  -3.3808086e+00  -4.0057235e+00  -4.2999841e+00  -3.9067334e+00  -3.0466095e+00  -1.7604609e+00  -1.3352073e+00  -4.3421998e-01
   1.0000000e+00  -2.2143370e+00  -3.5679871e+00  -3.8078938e+00  -4.3048052e+00  -3.7229295e+00  -2.7478127e+00  -1.6045991e+00  -1.4058032e+00  -9.7697028e-01  -4.4867083e-01  -3.9190609e-01  -4.6572855e-01  -4.4742541e-01  -3.4275557e-01  -4.9167137e-01  -3.5326407e-01  -4.4078832e-01  -5.2864666e-01  -4.3262388e-01  -4.4130889e-01  -3.8451422e-01  -4.5584059e-01  -4.4073097e-01  -3.6762756e-01  -5.3131936e-01  -5.1848711e-01  -5.5122110e-01  -5.7966599e-01  -6.5729364e-01  -7.0733743e-01  -6.3137629e-01  -7.1745413e-01  -6.9051061e-01  -7.4243501e-01  -8.1149343e-01  -7.4006893e-01  -7.9175633e-01  -7.4029444e-01  -6.9756352e-01  -6.7443250e-01  -6.2092081e-01  -3.9921141e-01  -3.4739800e-01  -3.5381091e-01  -2.9277820e-01  -1.7963344e-01  -2.1378885e-01  -1.8282090e-01  -1.8807456e-01  -1.9077640e-01  -1.3405008e-01  -1.6112404e-01  -5.7429875e-02  -1.5201694e-01  -2.6026030e-01  -4.4861365e-02  -1.4450203e-02  -1.0579548e-01  -3.8239856e-02  -1.7547655e-02  -4.7041636e-03   6.9695990e-02   5.1803041e-02   1.0611946e-01   1.3545949e-01   2.8216182e-01   2.2965339e-01   2.7206948e-01   2.3191091e-01   4.1024533e-01   4.6653468e-01   4.0870926e-01   5.8675920e-01   6.6411766e-01   7.1675806e-01   6.8761557e-01   7.1471397e-01   6.8000699e-01   6.9071934e-01   7.2140469e-01   7.4519806e-01   6.1596676e-01   5.9354673e-01   6.1621602e-01   6.6045312e-01   6.0853562e-01   6.3329074e-01   5.8609661e-01   5.6242567e-01   6.1809448e-01   5.2781413e-01   5.0947920e-01   5.6654054e-01   6.1618700e-01   5.6528192e-01   5.6069963e-01   6.1628252e-01   5.9708378e-01   5.9838765e-01   5.6361861e-01   6.1144783e-01   7.5761294e-01   9.6932927e-01   1.2203331e+00   1.5204229e+00   1.4993434e+00   1.4050964e+00   1.2624321e+00   9.5666837e-01   8.8079140e-01   8.2407834e-01   7.6613145e-01   5.1559464e-01   2.0426303e-01   2.0455261e-01   1.9045363e-01   1.3095690e-01   5.3273426e-02   1.0935193e-01   1.2657955e-01   8.4440764e-02   1.4459349e-02   1.6927465e-01   1.7330884e-01   5.6756205e-02   2.3694746e-02   1.0027327e-01   1.2112646e-01   3.3734814e-02   2.9383216e-01   8.0189310e-01   1.5450392e+00   1.9149716e+00   2.1141748e+00   2.3821012e+00   2.0293173e+00   1.0344429e+00  -2.4533644e-01  -5.3443740e-01  -8.8039342e-01
   2.0000000e+00  -2.9749899e-01  -7.1573951e-01  -1.1542280e+00  -1.3912333e+00  -1.6894270e+00  -1.9202342e+00  -1.9678426e+00  -1.8266563e+00  -1.3288089e+00  -7.4843288e-01  -5.2940255e-01  -4.3988250e-01  -1.6750655e-01   5.2364354e-02   1.3178590e-01   1.0391126e-01   1.7074393e-01   8.2413455e-02   1.2270754e-01   1.6547886e-01   1.0267778e-01   1.0906580e-01   1.5707413e-01   1.9104732e-01   1.7278839e-01   1.3486689e-01   1.3997297e-01   5.0282641e-02   1.2314607e-01   1.8949825e-01   1.2518265e-01   1.9692419e-01   2.1259576e-01   2.1748330e-01   2.1462278e-01   1.8420330e-01   1.0154621e-01   1.4292792e-01   7.8865639e-02   3.4017391e-02  -3.3824432e-02   6.1434380e-02   1.5334268e-01   1.2263241e-01   1.0932083e-01   8.3891345e-02   1.0649100e-01   1.0462700e-01   1.0379784e-01   4.6567544e-02   2.1123950e-02   4.5228342e-02   2.0265691e-01   2.6491008e-01   3.1957312e-01   2.7100357e-01   1.9446110e-01   2.6568626e-01   2.3603184e-01   2.2063221e-01   2.4532838e-01   2.6206535e-01   2.7579466e-01   2.3700349e-01   1.4277980e-01   1.6816081e-01   1.7921102e-01   2.6475799e-01   2.4443654e-01   1.7537062e-01   1.0945444e-01   1.2751294e-01   1.7418722e-01   2.2411838e-01   2.3804393e-01   2.4722469e-01   2.3510473e-01   2.1234410e-01   2.9683924e-01   3.9537003e-01   3.3482148e-01   3.1901718e-01   3.3931610e-01   3.5050848e-01   3.8226557e-01   3.6564532e-01   3.8676754e-01   4.7501636e-01   4.7889069e-01   4.8887566e-01   4.9232263e-01   5.0561907e-01   4.7864982e-01   4.8648478e-01   4.6964268e-01   4.6480737e-01   4.9827816e-01   4.5859519e-01   5.4125838e-01   5.0683281e-01   5.7113076e-01   5.5895140e-01   5.3067086e-01   4.9629754e-01   4.7181239e-01   4.4944354e-01   5.3752506e-01   6.4750565e-01   6.8335466e-01   6.6943341e-01   7.4886011e-01   7.8692683e-01   8.2854812e-01   9.4902048e-01   1.0683804e+00   1.1365714e+00   1.2466367e+00   1.4463635e+00   1.4521336e+00   1.3545440e+00   1.2693426e+00   1.1514464e+00   1.1093738e+00   1.0905734e+00   8.5958590e-01   5.3833678e-01   2.1644552e-01  -1.0637481e-01  -4.0562386e-01  -5.6797478e-01  -8.0499617e-01  -1.2777885e+00  -1.8039981e+00  -2.4099550e+00  -3.0884677e+00  -3.8948455e+00  -4.4387998e+00  -4.1915073e+00  -3.2642864e+00  -2.3242100e+00
   1.0000000e+00  -1.1412070e+00  -2.7084320e+00  -3.5555544e+00  -3.9150359e+00  -3.8923731e+00  -3.4891322e+00  -2.8266227e+00  -1.5559191e+00  -9.8692431e-01  -9.4688589e-01  -3.1233140e-01  -1.5157064e-01  -2.2235886e-01  -1.8627880e-01  -1.2685509e-01  -8.4553596e-02  -1.2751324e-01  -1.9147829e-01  -9.9386061e-02  -1.7822186e-01  -1.7345784e-01  -6.1514717e-02  -1.0078743e-01  -1.7218171e-01  -9.6421967e-02  -8.1542117e-02  -1.3983974e-01   4.6483564e-02   4.1194413e-02  -2.8852434e-02  -1.1476182e-01  -9.8236098e-02  -4.0542412e-02   1.0662103e-01   1.7766415e-01   1.7970103e-01   1.2754535e-01   2.2611904e-01   2.8199340e-01   2.8231924e-01   3.4465018e-01   2.7484592e-01   2.0194998e-01   3.8343291e-01   4.4258420e-01   3.4524526e-01   2.0404195e-01   3.0496198e-01   3.6362587e-01   3.2066222e-01   3.0545709e-01   2.5134920e-01   3.4248015e-01   3.6654453e-01   2.4450785e-01   9.7940019e-02   2.6106131e-01   3.3056420e-01   1.8940709e-01   1.3834742e-01   2.0074399e-02   2.2041988e-02   1.6008672e-01   2.3208055e-01   1.3296697e-01   1.5958109e-01   1.3849442e-01   1.4349130e-01   1.8469423e-01   2.0383449e-01   2.5862755e-01   2.9289387e-01   3.1462997e-01   2.5445291e-01   3.5324555e-01   3.1577781e-01   2.3891712e-01   3.3386725e-01   3.8924264e-01   4.3390392e-01   2.9326486e-01   4.0252976e-01   4.0709680e-01   2.9316991e-01   5.0405219e-01   4.1432378e-01   4.5727456e-01   3.1307398e-01   2.8054662e-01   3.1909388e-01   2.7908537e-01   3.9522713e-01   4.4687225e-01   5.4433752e-01   7.6334673e-01   9.0599909e-01   1.0413820e+00   1.3159923e+00   1.5015754e+00   1.8628031e+00   2.0876347e+00   1.9981858e+00   1.9293742e+00   1.8031470e+00   1.5302148e+00   1.4674213e+00   1.3891193e+00   9.8627968e-01   6.2675073e-01   5.8913001e-02  -4.7165021e-01  -6.6618480e-01  -5.2951727e-01  -3.6293875e-01  -2.2453111e-01  -2.6049779e-01  -4.2587093e-01  -4.7368582e-01  -2.5419473e-01  -9.5737105e-02  -1.7474533e-01  -3.0911037e-01  -1.9137242e-01  -1.5906757e-01  -2.3125926e-01   4.8939229e-03   1.2782875e-01   5.2723777e-01   1.1033285e+00   1.3454643e+00   1.0111290e+00   4.8060143e-01  -3.2214874e-01  -1.0252761e+00  -1.3174291e+00  -1.4598541e+00  -1.1083553e+00  -8.1338084e-01  -1.4096804e+00  -2.8915158e+00
   2.0000000e+00   1.1805190e+00   9.8078076e-01   8.0531628e-01   2.4199357e-01  -3.7050220e-01  -7.7404355e-01  -9.3595072e-01  -1.2819865e+00  -1.5388426e+00  -1.5368664e+00  -1.3672335e+00  -1.0670260e+00  -7.3649270e-01  -4.1639990e-01  -2.1369366e-01  -2.1004358e-01  -1.3568793e-01   1.8823303e-01   5.0260103e-01   5.9364890e-01   5.8371631e-01   5.8299927e-01   5.8254513e-01   5.8077436e-01   5.3303663e-01   5.5184140e-01   5.5444788e-01   5.1062935e-01   5.4678595e-01   5.1857687e-01   5.3469030e-01   6.0077184e-01   5.0133599e-01   4.7432369e-01   5.7821193e-01   5.6489261e-01   5.3075734e-01   5.2024345e-01   4.9748580e-01   4.9504837e-01   4.9071390e-01   4.7072594e-01   4.3814601e-01   4.3587086e-01   4.3644331e-01   4.0025976e-01   4.6145068e-01   4.1724200e-01   3.0767766e-01   3.6571938e-01   3.2613189e-01   2.9527056e-01   3.5788823e-01   4.0230948e-01   3.5472003e-01   2.4475435e-01   2.3897277e-01   2.5983579e-01   2.2576296e-01   1.6427947e-01   1.4704209e-01   1.1804198e-01   1.2128052e-01   1.6654614e-01   1.2065269e-01   9.9689260e-02   9.1488774e-02   1.5156507e-01   1.1446082e-01   4.6324389e-02   1.6654614e-01   1.2990795e-01   1.0172547e-01   1.9177091e-01   1.9651145e-01   1.8597274e-01   1.8447784e-01   1.8465280e-01   2.1649067e-01   2.3680872e-01   2.5602700e-01   3.0162216e-01   3.4197641e-01   3.4535708e-01   3.1139940e-01   3.6324166e-01   4.8229964e-01   4.7299112e-01   4.6400039e-01   4.7344044e-01   4.8122202e-01   4.9246598e-01   4.3518133e-01   5.3250505e-01   5.5760569e-01   4.8845951e-01   5.3257944e-01   5.6826508e-01   5.4678595e-01   5.2331041e-01   5.6950224e-01   5.3140350e-01   5.6784945e-01   5.8542483e-01   5.1009825e-01   6.1921258e-01   6.2222814e-01   5.1517221e-01   5.5812147e-01   6.2345197e-01   5.8511182e-01   5.9121013e-01   6.0110592e-01   5.8843060e-01   7.0168779e-01   6.4188009e-01   5.3308546e-01   5.1464466e-01   3.5059826e-01   1.8465280e-01   1.8663279e-01   2.7960520e-01   1.0946033e-01  -1.8397217e-01  -3.7387761e-01  -5.0574066e-01  -7.5689339e-01  -1.1218739e+00  -1.1487794e+00  -1.2377768e+00  -1.5948240e+00  -1.9712266e+00  -2.3358427e+00  -2.8210523e+00  -3.2783052e+00  -3.5963036e+00  -4.3826061e+00  -4.0130514e+00  -3.9243709e+00  -2.1123785e+00
   1.0000000e+00  -1.0303369e+00  -2.8902968e+00  -4.1529216e+00  -4.3944079e+00  -3.6237240e+00  -2.3673062e+00  -1.4602222e+00  -1.3774812e+00  -8.6205512e-01  -3.0051271e-01  -1.9234606e-01  -1.7519320e-01  -2.4769207e-01  -3.2527182e-01  -3.4162493e-01  -2.7163663e-01  -2.6391876e-01  -2.5719511e-01  -2.0642775e-01  -3.0094051e-01  -3.5995430e-01  -3.6672191e-01  -6.0674211e-01  -6.5781774e-01  -6.1223188e-01  -6.7200979e-01  -7.7557957e-01  -7.2398255e-01  -7.8528558e-01  -8.8506034e-01  -1.0124740e+00  -1.0540250e+00  -1.0123945e+00  -9.8909516e-01  -1.1039699e+00  -1.1497602e+00  -1.0841321e+00  -9.9350855e-01  -8.5982772e-01  -8.8363229e-01  -8.7091678e-01  -6.9319084e-01  -5.3647487e-01  -4.7469733e-01  -4.7121785e-01  -3.1882398e-01  -3.1298053e-01  -3.5351493e-01  -2.1721362e-01  -1.9765285e-01  -1.4533906e-01  -6.6468556e-02   2.7224769e-02  -4.3056590e-02  -1.0915218e-01   5.5083156e-02   1.1015955e-01   2.5430889e-01   1.0135649e-01   1.3191227e-01   2.0629128e-02   7.0104146e-02   1.8763750e-01   1.9101898e-01   2.2219505e-01   2.7571310e-01   2.8737493e-01   3.2387447e-01   4.5065324e-01   5.2582799e-01   4.4275653e-01   3.7869458e-01   4.5377651e-01   4.5200084e-01   6.4589851e-01   5.3085853e-01   4.4018549e-01   5.3890371e-01   5.1553162e-01   5.8791731e-01   5.7195374e-01   4.6612142e-01   3.8611262e-01   4.1679058e-01   4.7078848e-01   4.6761219e-01   4.1294013e-01   4.6719101e-01   4.1547637e-01   3.4071106e-01   3.5928464e-01   4.0445104e-01   3.3416587e-01   4.3746822e-01   5.3002560e-01   4.0279162e-01   5.6358346e-01   7.3205870e-01   1.0120017e+00   1.1701786e+00   1.1442414e+00   1.3821190e+00   1.6226952e+00   1.8712313e+00   1.8448372e+00   1.7716451e+00   1.6757543e+00   1.4768927e+00   1.5145130e+00   1.3341150e+00   9.8979636e-01   5.7258400e-01   8.5540557e-02  -1.4386373e-01  -1.6596064e-01  -1.2089324e-01  -1.5913471e-01  -1.9729842e-02  -9.1102415e-02  -2.5430822e-01  -1.3294198e-01  -3.5911459e-02  -1.5841524e-01  -1.5968087e-01  -1.8475500e-01  -1.2747847e-01  -6.9177955e-02  -9.1919193e-02   1.3158210e-01   4.4766014e-01   1.0840258e+00   1.2337882e+00   1.3064865e+00   1.4272958e+00   1.3869880e+00   1.1962829e+00   1.0530282e+00   1.0620862e+00   1.6220875e+00   5.3510891e-01
   1.0000000e+00  -1.5096586e+00  -3.0046407e+00  -4.4437719e+00  -4.7805823e+00  -3.9885975e+00  -2.7077173e+00  -1.3446323e+00  -1.0383223e+00  -7.1365654e-01   7.4355119e-02   4.9777317e-01   5.2717013e-01   3.9283856e-01   3.8066399e-01   4.0935311e-01   4.2807118e-01   3.5061298e-01   4.6650456e-01   4.5118083e-01   4.2492784e-01   3.4025687e-01   2.3905919e-01   1.9749573e-01   2.0888390e-01   1.3522850e-01   5.7307729e-02  -1.3892934e-02  -2.4463651e-02  -5.6393414e-02  -1.8055875e-01  -3.1804152e-01  -3.2428377e-01  -4.0522833e-01  -3.9568872e-01  -4.7094898e-01  -4.7237794e-01  -5.2550473e-01  -5.7030603e-01  -5.0842255e-01  -5.0829470e-01  -3.5859024e-01  -3.0427838e-01  -2.4574235e-01  -1.1179638e-01  -8.9156597e-02   2.8092905e-02   6.2555616e-02   1.7791152e-01   1.7251814e-01   1.6195974e-01   2.0645132e-01   2.0659021e-01   2.9891755e-01   1.5528536e-01   2.4450795e-01   2.5894482e-01   2.7266841e-01   2.3335979e-01   1.7347029e-01   2.6076810e-01   2.2508737e-01   2.1849486e-01   3.1641643e-01   3.4334304e-01   3.3103151e-01   2.2610963e-01   3.3288103e-01   2.9687375e-01   3.5547573e-01   2.3397320e-01   3.3030086e-01   3.9225236e-01   3.3690852e-01   3.9064160e-01   3.2212127e-01   5.4489623e-01   4.9747643e-01   5.4463013e-01   5.4569535e-01   4.1072268e-01   3.5943356e-01   3.5686712e-01   3.3271396e-01   2.5060615e-01   1.9801223e-01   3.0237225e-01   3.4087793e-01   2.4738533e-01   2.2870696e-01   2.2727174e-01   2.1550310e-01   1.0932904e-01   2.5158094e-01   2.4329018e-01   5.3534827e-01   6.1038695e-01   7.9168654e-01   1.0387530e+00   1.1982153e+00   1.4887399e+00   1.7845617e+00   2.1021585e+00   2.1526675e+00   2.0442210e+00   1.5659707e+00   1.5220309e+00   1.3391746e+00   9.7136769e-01   7.0668922e-01   1.9887262e-01  -2.6308593e-01  -4.6827784e-01  -6.7777381e-01  -7.6265154e-01  -6.9480297e-01  -6.4794204e-01  -6.6219285e-01  -7.8214976e-01  -8.4814589e-01  -8.3344536e-01  -7.9770744e-01  -7.2680638e-01  -7.9886920e-01  -8.4118040e-01  -8.4278107e-01  -9.1886087e-01  -5.9757687e-01  -1.6333445e-01   6.0992068e-01   9.6148666e-01   6.9882796e-01   8.4095670e-01   9.0550862e-01   6.5449069e-01   3.0972351e-01  -4.8094135e-02   6.7568972e-02   2.4324818e-01  -5.5047159e-01  -2.3558442e+00
   2.0000000e+00   8.5205524e-01  -3.8569191e-01  -1.4537454e+00  -1.8705169e+00  -2.2411260e+00  -2.4086138e+00  -2.2742429e+00  -1.8800795e+00  -1.2920028e+00  -8.6576823e-01  -7.3499340e-01  -6.0471224e-01  -1.3284265e-01   1.7776662e-01   2.0610044e-01   2.3455343e-01   2.5665851e-01   2.3034450e-01   1.0013211e-01   1.5742227e-01   2.6673921e-01   2.9629066e-01   2.2440278e-01   2.5948753e-01   1.8995927e-01   2.2697151e-01   2.6756435e-01   2.3947316e-01   2.2181080e-01   2.4158149e-01   2.3865756e-01   1.9852211e-01   2.5010625e-01   2.5773808e-01   2.3779603e-01   1.8265643e-01   1.9023504e-01   1.4038670e-01   7.3915537e-02   1.1966338e-01   8.3065420e-02   7.8769282e-02  -5.7015231e-02  -1.3388628e-03  -5.7332406e-02  -5.9571001e-02  -2.3793031e-02  -1.5730933e-01  -1.1913511e-01  -5.7662215e-02  -8.5394450e-02  -1.3343197e-01  -1.4696944e-01  -6.0528156e-02  -9.3216951e-02  -5.5891622e-04  -5.3184274e-03   2.1646490e-02  -4.6297299e-04   1.8730205e-01   1.4694378e-01   2.0104759e-01   2.8414840e-01   2.3290810e-01   2.7845654e-01   2.3074984e-01   2.2656896e-01   3.7721789e-01   4.0630164e-01   3.8601858e-01   4.4356637e-01   4.3557463e-01   4.5213963e-01   4.0156559e-01   3.8052087e-01   4.1659045e-01   3.4936874e-01   4.8244135e-01   5.4459128e-01   5.0167064e-01   4.8809925e-01   5.7397255e-01   5.2412527e-01   5.1250864e-01   6.2125972e-01   6.4540042e-01   6.3739581e-01   5.7871059e-01   5.8091334e-01   6.6026795e-01   5.8078130e-01   5.5099610e-01   6.9720293e-01   6.6514605e-01   7.1599065e-01   7.0487248e-01   6.9547772e-01   7.0206922e-01   7.2336956e-01   7.2912750e-01   8.5579714e-01   8.0719170e-01   8.0650238e-01   8.0292602e-01   8.6906707e-01   8.1066924e-01   8.3306484e-01   8.4821711e-01   8.1029940e-01   7.7783540e-01   7.8443956e-01   8.1583907e-01   8.2932694e-01   8.1749618e-01   8.2874875e-01   8.4388154e-01   8.3775719e-01   7.1609304e-01   5.7106396e-01   3.2814397e-01   2.8225733e-01   3.6668551e-01   3.8201093e-01   2.3431153e-01   7.4095715e-02  -1.2801984e-01  -2.3271770e-01  -2.9722416e-01  -1.4562902e-01  -1.1828545e-01  -3.3104864e-01  -7.4991200e-01  -1.5097833e+00  -2.1637107e+00  -3.1387064e+00  -4.2686680e+00  -4.6285081e+00  -3.9755517e+00  -2.6993826e+00  -2.0190518e+00
   1.0000000e+00  -1.4656647e+00  -3.7474092e+00  -4.1391221e+00  -4.0559476e+00  -3.5904467e+00  -2.4765377e+00  -1.6108859e+00  -1.5093306e+00  -9.1102680e-01  -4.0674433e-01  -3.8712222e-01  -3.9422013e-01  -4.2555977e-01  -4.6610411e-01  -3.4764630e-01  -4.3218621e-01  -3.3031572e-01  -3.4047119e-01  -4.3064295e-01  -4.5581041e-01  -3.7253128e-01  -4.8169802e-01  -4.9299085e-01  -5.5756245e-01  -4.9653753e-01  -6.0910528e-01  -6.2091354e-01  -7.1562168e-01  -7.1118020e-01  -6.2389500e-01  -7.5541704e-01  -8.3925197e-01  -8.4264648e-01  -8.4528906e-01  -9.2923716e-01  -9.4218627e-01  -8.1432057e-01  -9.4697535e-01  -8.4125475e-01  -7.9171259e-01  -6.6232987e-01  -5.8601315e-01  -5.2128698e-01  -3.6707373e-01  -2.7464228e-01  -2.8200167e-01  -2.0674105e-01  -1.0062521e-01  -4.0872477e-02  -6.5514854e-02   8.9009090e-03   1.5873558e-02   3.4774338e-02   7.4140849e-02   7.2952688e-02   1.1387534e-01   1.9336579e-01   9.6317011e-02   2.1870571e-01   1.5974638e-01   1.8117649e-01   2.7735266e-01   3.1873471e-01   2.7325098e-01   3.3302514e-01   3.6215480e-01   2.8996360e-01   4.8405775e-01   5.0406918e-01   4.2694481e-01   5.1911154e-01   4.6074550e-01   5.3987567e-01   5.3824028e-01   5.0294719e-01   4.4004486e-01   5.5206251e-01   5.6314682e-01   5.4303586e-01   5.0519466e-01   5.6260520e-01   5.1289488e-01   4.4022169e-01   5.0032491e-01   4.4695619e-01   4.0831630e-01   4.6786259e-01   3.9859842e-01   4.3091795e-01   3.9377108e-01   4.0175340e-01   3.7923623e-01   3.8595670e-01   4.5987194e-01   4.0770876e-01   6.1731938e-01   6.8967452e-01   9.7056887e-01   1.1274427e+00   1.2522087e+00   1.4728763e+00   1.7197247e+00   1.9630085e+00   1.8426251e+00   1.7493378e+00   1.7313484e+00   1.4736886e+00   1.4013767e+00   1.1530649e+00   8.0097740e-01   5.5665387e-01   9.5496925e-02  -1.1323841e-02  -1.3048589e-01  -1.5308213e-01  -2.0874309e-01  -2.0113087e-01  -8.3543098e-02  -2.2152387e-01  -1.7914383e-01  -2.0645302e-01  -2.3340597e-01  -2.2197693e-01  -2.3666484e-01  -1.3959703e-01  -1.1390518e-01  -1.5213869e-01   1.7605982e-02   2.7389362e-01   8.1884808e-01   1.0701280e+00   1.0029131e+00   1.1468618e+00   1.2318679e+00   1.0128074e+00   8.5087328e-01   1.0180947e+00   1.5326872e+00   1.5467108e+00  -5.8772763e-01
   2.0000000e+00   1.8079965e+00   6.3581278e-01  -8.3934783e-01  -2.0205155e+00  -2.7553151e+00  -3.0192443e+00  -2.9683794e+00  -2.7743850e+00  -2.5067588e+00  -2.1367426e+00  -1.5990568e+00  -1.0231342e+00  -6.7399169e-01  -5.8335290e-01  -4.5946188e-01  -9.6263174e-02   2.8120602e-01   3.8308926e-01   3.9886401e-01   4.3626463e-01   3.9014849e-01   4.4420613e-01   5.1546089e-01   4.7810461e-01   4.9969044e-01   4.6461561e-01   3.7141743e-01   4.0694064e-01   3.8797206e-01   3.2652932e-01   4.3429733e-01   4.2279189e-01   3.4024984e-01   3.6756105e-01   3.0262320e-01   3.5680717e-01   4.0376706e-01   3.1549439e-01   3.2460962e-01   2.4228339e-01   2.2164267e-01   2.7518801e-01   1.8183948e-01   1.5606702e-01   1.5325889e-01   1.3548829e-01   1.3309289e-01   9.3165903e-02   8.1371417e-02   2.9597977e-02  -5.2846619e-04  -3.7809361e-03  -4.4867609e-02  -3.1473287e-02  -1.0120422e-01  -1.9596681e-01  -1.8461844e-01  -2.3414544e-01  -2.4846526e-01  -1.7759222e-01  -2.2301071e-01  -2.7727104e-01  -2.3327953e-01  -2.5261170e-01  -2.6421934e-01  -1.7639442e-01  -1.5493238e-01  -1.7539633e-01  -1.2192408e-01  -5.3531893e-02  -2.4293103e-02   2.2916800e-02   1.1644428e-01   1.8703555e-01   2.4070942e-01   3.1433804e-01   3.4282031e-01   3.6633044e-01   4.8999888e-01   5.9900412e-01   5.7917342e-01   5.9132246e-01   7.0651120e-01   7.2355503e-01   7.0862274e-01   8.0580730e-01   8.1552425e-01   7.5835857e-01   7.5646967e-01   7.5478348e-01   7.5900017e-01   7.4087439e-01   7.3808377e-01   7.5480706e-01   7.4968502e-01   8.2395264e-01   8.9285275e-01   8.1947056e-01   7.7733360e-01   8.3548542e-01   8.5921302e-01   8.8713045e-01   8.8390590e-01   8.0522733e-01   8.2079954e-01   8.6951328e-01   8.3771480e-01   9.3008864e-01   1.0367543e+00   9.4193615e-01   9.4247353e-01   9.7681817e-01   8.6894808e-01   8.0374020e-01   6.6216757e-01   5.4542267e-01   6.0871664e-01   5.8297874e-01   4.4120300e-01   3.0958258e-01   1.8958594e-01   1.0682821e-01  -1.2664809e-02  -1.7079361e-01  -1.2977808e-01  -4.0845635e-02  -1.8461844e-01  -4.8733423e-01  -9.4832948e-01  -1.4653640e+00  -1.9100783e+00  -2.3049308e+00  -2.6471370e+00  -2.9707276e+00  -3.0550590e+00  -2.7516640e+00  -2.0030995e+00  -8.3138788e-01   2.9249379e-01   1.3752386e+00
   1.0000000e+00   5.2291508e-01  -1.6581891e+00  -3.1481626e+00  -4.3266878e+00  -4.1877082e+00  -3.3156309e+00  -2.1100088e+00  -1.3525564e+00  -1.3819848e+00  -7.0999261e-01  -5.1727285e-02   1.4447139e-02   2.8286479e-02   1.3787031e-02   6.1959301e-04  -2.1855979e-02  -3.4028440e-02  -4.6177569e-02  -1.8788813e-01  -2.2049314e-01  -1.8631915e-01  -2.0498663e-01  -2.3882333e-01  -1.7908122e-01  -2.1584618e-01  -3.2667757e-01  -4.0353506e-01  -5.3375395e-01  -5.9294674e-01  -6.7365408e-01  -7.3783060e-01  -7.4852642e-01  -8.0201457e-01  -8.3482579e-01  -8.5330328e-01  -9.6281928e-01  -9.3889552e-01  -9.5617826e-01  -1.0896039e+00  -9.4575206e-01  -9.0595128e-01  -9.3141262e-01  -8.2586263e-01  -7.5109080e-01  -6.6411219e-01  -5.3144706e-01  -3.9608566e-01  -3.6518927e-01  -2.4212594e-01  -2.0805656e-01  -2.0573149e-01  -2.1708278e-01  -1.4675806e-01  -1.9263626e-01  -2.2536363e-01  -7.6512794e-02  -3.6797393e-02  -1.4335004e-01  -2.2581875e-02   3.3623967e-02  -4.8794384e-02  -9.4193668e-02  -1.3866992e-02   1.5961477e-02  -1.0113736e-01   1.2191487e-04  -2.3641444e-02   7.5595271e-02   3.4011453e-01   1.8398336e-01   1.6545813e-01   2.7681132e-01   2.2635488e-01   3.1779458e-01   4.6058100e-01   3.7366217e-01   3.9505900e-01   3.6580924e-01   4.5365563e-01   3.9921769e-01   4.0194761e-01   4.8035918e-01   3.6561205e-01   3.8120561e-01   3.3538265e-01   3.2601626e-01   3.3174842e-01   3.7534962e-01   2.9002493e-01   3.6196081e-01   1.9773806e-01   2.3808026e-01   3.1785412e-01   4.0923672e-01   4.5957480e-01   5.5537876e-01   7.0686883e-01   8.2343880e-01   9.6171615e-01   1.1590885e+00   1.3869558e+00   1.6980630e+00   1.9524769e+00   2.0313551e+00   1.9426685e+00   1.8328098e+00   1.6248953e+00   1.5182805e+00   1.1545948e+00   9.4711128e-01   6.9632095e-01   3.0633381e-01   3.6444227e-02  -2.4477343e-01  -3.3670801e-01  -2.3825724e-01  -3.0394356e-01  -2.9348816e-01  -2.6373477e-01  -3.3986185e-01  -3.1512807e-01  -2.7297483e-01  -1.7664871e-01  -2.1583139e-01  -2.3783034e-01  -1.6015194e-01  -1.5942136e-01  -1.9751170e-02   2.7270680e-01   7.3644178e-01   1.2643941e+00   1.0531104e+00   1.2085501e+00   1.4149455e+00   1.4946228e+00   1.3806946e+00   1.2914213e+00   1.6234303e+00   2.0057832e+00   1.1098999e+00
   1.0000000e+00  -1.9534591e+00  -3.8091916e+00  -4.6416611e+00  -4.5998295e+00  -3.6686415e+00  -2.0640696e+00  -1.5497278e+00  -1.2305202e+00  -4.1823168e-01  -6.9757391e-02  -8.0412521e-02  -1.6033532e-01  -3.1826520e-02  -6.3303914e-02  -7.2209445e-02  -9.4960499e-02  -7.1013202e-02  -8.2402318e-02  -7.3811039e-02  -1.8888682e-01  -1.3476871e-01  -2.7582619e-01  -3.0588025e-01  -3.7060575e-01  -3.9439472e-01  -4.2906037e-01  -4.8003109e-01  -4.1160805e-01  -4.8378320e-01  -5.7889590e-01  -7.1732514e-01  -7.9885524e-01  -8.9373788e-01  -8.3412128e-01  -8.5572188e-01  -8.0159117e-01  -8.5588890e-01  -7.5934940e-01  -6.5767496e-01  -5.2459727e-01  -3.4740751e-01  -3.1560565e-01  -2.4563892e-01  -1.8672194e-01  -7.4265695e-02   8.2979822e-02   1.7149700e-01   1.8320236e-01   2.0554828e-01   1.6538283e-01   2.2812141e-01   3.6736801e-01   1.9806472e-01   3.1948767e-01   2.8439025e-01   3.2665802e-01   4.2756961e-01   2.7548215e-01   3.5226180e-01   2.7144521e-01   3.6751693e-01   3.6564160e-01   3.6348128e-01   3.6997744e-01   3.7522989e-01   3.2148147e-01   2.9773170e-01   4.8178558e-01   4.2600647e-01   4.9558580e-01   4.9320543e-01   5.5422422e-01   5.1881845e-01   4.9487260e-01   5.9988868e-01   6.0385201e-01   7.1269335e-01   5.4525838e-01   6.2394310e-01   4.8224793e-01   5.1294496e-01   5.5075756e-01   6.3682717e-01   4.9663046e-01   4.4853063e-01   4.7099761e-01   6.1419406e-01   4.2189787e-01   4.3797752e-01   4.1610789e-01   3.8335967e-01   4.5948376e-01   4.0337769e-01   4.1200461e-01   6.8720997e-01   9.1347427e-01   1.0377971e+00   1.0938323e+00   1.3395743e+00   1.4264312e+00   1.6346982e+00   1.8482476e+00   1.7011666e+00   1.6981216e+00   1.5546838e+00   1.4806116e+00   1.2481717e+00   1.0341041e+00   6.3701338e-01   3.4757514e-01  -7.0492824e-02  -3.2938940e-01  -3.5144236e-01  -3.9608988e-01  -2.9810402e-01  -4.1831330e-01  -4.9530799e-01  -4.9395653e-01  -4.9365751e-01  -3.1639056e-01  -3.9944552e-01  -4.0487952e-01  -6.0721747e-01  -5.0768082e-01  -2.8361414e-01  -3.6507084e-01  -4.3513766e-01  -1.2132944e-01   3.9898265e-01   8.3313354e-01   6.2501875e-01   6.5802610e-01   7.7404571e-01   8.0526938e-01   8.3178235e-01   5.3320604e-01   6.5364237e-01   7.4384229e-01  -7.1921913e-02  -2.0406051e+00
   2.0000000e+00   9.4848449e-01  -4.9050928e-01  -1.7377965e+00  -2.8348639e+00  -3.2253306e+00  -3.1506151e+00  -2.7908576e+00  -2.5183365e+00  -2.0352237e+00  -1.3814593e+00  -9.5897773e-01  -7.9579299e-01  -7.2016373e-01  -3.9618497e-01   5.4776187e-02   3.5200062e-01   4.9369817e-01   4.8010186e-01   4.1615497e-01   4.0288069e-01   3.5916683e-01   4.1447812e-01   4.9404830e-01   4.0501591e-01   3.3993987e-01   3.8521605e-01   4.6435735e-01   4.2621419e-01   3.2695019e-01   3.6671377e-01   3.9774887e-01   3.3174919e-01   3.2526058e-01   3.3914841e-01   2.7866030e-01   2.6621049e-01   2.6023226e-01   1.7471878e-01   2.1230778e-01   2.3016421e-01   1.3106509e-01   9.6383795e-02   9.2165462e-02   1.2554128e-01   8.8234620e-02   4.9696170e-02   7.0074969e-02  -1.8326310e-02  -7.2686995e-02  -7.8827618e-02  -1.1425103e-01  -1.2159951e-01  -1.5264108e-01  -1.9518194e-01  -1.7552431e-01  -1.7902162e-01  -1.9566735e-01  -1.5763511e-01  -1.4945435e-01  -2.1108681e-01  -2.2298489e-01  -1.3132262e-01  -1.4470692e-01  -1.6058675e-01  -9.8261098e-02  -1.2210498e-01  -5.1832917e-02   6.0342623e-02   7.5536713e-02   1.0794121e-01   1.6874278e-01   2.3451686e-01   2.4989967e-01   2.5750879e-01   3.6733782e-01   4.4251629e-01   4.5939610e-01   5.4663876e-01   5.4479816e-01   4.9148242e-01   5.3404634e-01   5.9168910e-01   6.5290976e-01   6.5540105e-01   5.7020885e-01   5.9347624e-01   6.7847950e-01   7.0853339e-01   7.3152413e-01   6.6505837e-01   5.9601770e-01   6.4552044e-01   7.2378505e-01   7.2747376e-01   7.0444886e-01   7.1664586e-01   6.6942948e-01   6.7888386e-01   7.3994582e-01   7.5467486e-01   7.8129041e-01   7.4018945e-01   7.5137750e-01   7.8913180e-01   8.1211792e-01   8.2664985e-01   7.9374127e-01   8.9424818e-01   9.1783234e-01   9.2531263e-01   1.0355777e+00   1.0228304e+00   1.0553716e+00   1.0731128e+00   9.4578752e-01   8.5444294e-01   7.6162130e-01   6.3785789e-01   6.1011320e-01   5.9317650e-01   5.0991947e-01   3.1793465e-01   7.6031946e-02  -4.1406126e-02  -1.2184451e-01  -1.3142956e-01   4.0991838e-02  -6.8809444e-03  -3.4336564e-01  -7.5690475e-01  -1.3692656e+00  -1.9329397e+00  -2.4236561e+00  -2.9791101e+00  -3.3477590e+00  -3.3892293e+00  -2.7078599e+00  -1.3648788e+00  -2.8493984e-01   1.2802544e+00
   2.0000000e+00   4.7629506e-01  -5.3840632e-01  -1.3842164e+00  -2.2019061e+00  -2.3694425e+00  -2.6360220e+00  -2.7599146e+00  -2.6366757e+00  -2.4580649e+00  -1.9624654e+00  -1.3041406e+00  -6.6576935e-01  -2.3525631e-01  -2.5268042e-01  -6.9110963e-02   2.9733449e-01   4.3286334e-01   5.3842000e-01   5.7922233e-01   5.4502136e-01   4.8527772e-01   4.4688751e-01   4.9403702e-01   4.7175174e-01   4.4269049e-01   5.2762246e-01   4.9265969e-01   5.5839211e-01   5.7845209e-01   4.2422806e-01   4.7193618e-01   4.1368448e-01   3.8728380e-01   4.2486241e-01   3.3966597e-01   3.7601615e-01   3.7091830e-01   2.7752192e-01   2.4081397e-01   2.6702020e-01   2.7006030e-01   1.7895648e-01   1.5769654e-01   2.4560898e-01   2.2591242e-01   2.0985108e-01   2.2112962e-01   1.3154516e-01   8.4871389e-02   6.1225248e-02   1.2253155e-01   1.3065825e-01  -1.0004577e-02   1.5145252e-02   6.8254169e-02   5.6850233e-03   2.2568854e-02   6.8309575e-03  -1.0539501e-01  -8.8685843e-02   3.6170898e-02   1.2772059e-01   1.0484913e-01   8.0661715e-02   1.2670682e-01   1.2820911e-01   1.2656871e-01   1.3730263e-01   2.1981486e-01   2.4142822e-01   1.7545833e-01   2.7559132e-01   3.4138392e-01   3.1200907e-01   3.5315043e-01   4.4369232e-01   5.0145544e-01   4.6335786e-01   4.6534075e-01   5.4795276e-01   5.3909059e-01   5.3312622e-01   5.7709837e-01   5.5163425e-01   5.9034208e-01   5.8037169e-01   5.1737487e-01   5.2881784e-01   5.4819458e-01   5.7018898e-01   4.9637501e-01   5.6851474e-01   6.4539351e-01   4.9284791e-01   5.1006366e-01   6.0385935e-01   5.6823194e-01   5.0386637e-01   5.1333841e-01   5.5187848e-01   5.2950985e-01   5.5459718e-01   6.0439944e-01   5.9493809e-01   5.7243486e-01   5.2643452e-01   5.3457876e-01   6.2426109e-01   5.9619382e-01   5.9677765e-01   6.5648144e-01   6.5096404e-01   7.1974893e-01   6.8242316e-01   5.8555565e-01   5.7899383e-01   5.4408615e-01   4.5816859e-01   4.2573029e-01   5.8480731e-01   6.6228920e-01   5.3437008e-01   4.4703864e-01   4.0622426e-01   4.2020975e-01   5.8056432e-01   7.2875319e-01   5.7425158e-01   1.4229121e-01  -3.3545211e-01  -8.8230621e-01  -1.6220918e+00  -2.2297477e+00  -2.9240917e+00  -3.6009123e+00  -3.9458287e+00  -3.7682566e+00  -2.4648969e+00  -1.9363403e+00  -4.4783930e-01
   1.0000000e+00  -3.5301727e-01  -2.5554714e+00  -3.7736823e+00  -4.3753884e+00  -3.6777465e+00  -2.8996885e+00  -1.8636863e+00  -1.5637933e+00  -1.3101929e+00  -6.7135165e-01  -4.2793637e-01  -4.8704476e-01  -4.7731534e-01  -4.0122239e-01  -4.2246898e-01  -3.1601683e-01  -3.5370926e-01  -4.2228875e-01  -5.6130114e-01  -5.4379853e-01  -4.4890409e-01  -5.1960066e-01  -6.6561076e-01  -6.3360417e-01  -5.9146855e-01  -6.4065478e-01  -7.4009491e-01  -7.1081128e-01  -7.1095206e-01  -8.3191927e-01  -8.2542853e-01  -8.0632669e-01  -9.0231836e-01  -8.9025011e-01  -9.3435926e-01  -8.8262935e-01  -8.9988840e-01  -1.0557348e+00  -9.1204396e-01  -8.2675143e-01  -7.5081842e-01  -7.0735576e-01  -6.3056919e-01  -5.8552980e-01  -5.5538137e-01  -4.6497537e-01  -2.5323357e-01  -2.2340435e-01  -1.6838343e-01  -1.5319676e-01  -1.9914053e-02  -7.1412264e-02  -5.1405777e-02  -1.5783605e-02  -1.8223775e-02  -3.9608756e-02   2.7723612e-03  -1.6919281e-02   4.8824147e-02   9.7848183e-02   1.8906883e-01   1.0721373e-01   1.4290412e-01   1.6026131e-01   1.5682452e-01   1.9478019e-01   2.9546046e-01   3.0790241e-01   4.2469957e-01   4.6852497e-01   4.2252816e-01   4.5512004e-01   5.5190060e-01   5.5225011e-01   5.8580718e-01   6.0693641e-01   6.0928850e-01   5.6503515e-01   5.0215025e-01   6.1319680e-01   5.0539237e-01   4.2106728e-01   5.6173445e-01   4.9263192e-01   4.8868886e-01   4.9497647e-01   4.3289365e-01   4.9683751e-01   4.4892788e-01   4.2308706e-01   4.1120898e-01   4.6211304e-01   3.8634644e-01   4.2358714e-01   6.0478346e-01   6.1846711e-01   8.4226626e-01   9.7201670e-01   1.0671547e+00   1.2309188e+00   1.3505916e+00   1.6136772e+00   1.7732872e+00   1.7553740e+00   1.7499119e+00   1.6900400e+00   1.5613416e+00   1.3218932e+00   1.1683668e+00   9.2853560e-01   6.0123562e-01   2.5046281e-01   2.2533286e-02  -8.0446107e-02  -4.2271003e-02  -9.8412842e-02  -6.9859960e-02  -1.6764024e-03  -4.3987659e-02  -2.0336256e-02  -4.9698417e-02  -8.3025588e-02  -1.1439734e-01  -5.4049102e-02  -3.5488503e-02   6.6567039e-02   5.9371878e-03   4.8702310e-02   2.6059099e-01   7.1169029e-01   1.1711217e+00   1.0236227e+00   1.2976628e+00   1.3541757e+00   1.3260565e+00   1.2200247e+00   1.1779861e+00   1.6821597e+00   1.6429416e+00  -3.1665111e-01
   1.0000000e+00   1.4440682e-01  -1.7864330e+00  -3.7115464e+00  -4.7646264e+00  -4.0439150e+00  -2.8799472e+00  -1.8313374e+00  -1.6379801e+00  -1.1282532e+00  -3.5690202e-01  -3.6258069e-01  -4.1729974e-01  -3.2079326e-01  -3.6459650e-01  -3.0843564e-01  -3.2129731e-01  -3.6481000e-01  -3.8237412e-01  -4.3458758e-01  -3.9205312e-01  -5.0090406e-01  -4.5741802e-01  -4.2345428e-01  -5.0466431e-01  -4.6346335e-01  -6.1867603e-01  -6.8529351e-01  -6.9348523e-01  -7.1036088e-01  -8.1321407e-01  -8.7107618e-01  -8.9147181e-01  -1.0050303e+00  -1.0239307e+00  -9.8747791e-01  -1.0230712e+00  -8.8709702e-01  -1.0119805e+00  -9.2857862e-01  -8.3015005e-01  -6.6831009e-01  -5.8352725e-01  -5.5303235e-01  -3.5429108e-01  -3.9810888e-01  -2.7262275e-01  -1.2039751e-01  -9.8355084e-02   7.5831079e-03   5.0464117e-02   1.0459466e-01   8.6256009e-02   1.1327637e-01   1.5275481e-01   8.6214496e-02   1.5118984e-01   2.1506764e-01   1.6476936e-01   2.7966489e-01   3.0650159e-01   2.9150411e-01   2.8955453e-01   3.4917440e-01   3.2343936e-01   4.2178574e-01   4.8137300e-01   4.0558147e-01   4.6157179e-01   4.1514596e-01   5.9839134e-01   5.6521438e-01   6.0642087e-01   5.9387302e-01   5.9198286e-01   6.8645216e-01   5.9964597e-01   6.1366772e-01   5.5908853e-01   5.9005827e-01   5.7232515e-01   6.4258666e-01   5.6978584e-01   6.0576499e-01   5.4059372e-01   6.1392401e-01   4.3346940e-01   4.2380572e-01   4.1144415e-01   3.3506462e-01   3.5432094e-01   2.6332499e-01   2.8683437e-01   2.8058857e-01   3.1965965e-01   4.5271516e-01   5.2409373e-01   6.8783230e-01   8.2471932e-01   9.7951169e-01   1.1200931e+00   1.3421429e+00   1.5461114e+00   1.8009747e+00   1.9081817e+00   1.8238319e+00   1.8476785e+00   1.5460718e+00   1.3903540e+00   1.1010373e+00   8.9015527e-01   4.6073324e-01  -5.7458501e-02  -2.1825162e-01  -2.6401117e-01  -3.3999315e-01  -3.5145835e-01  -3.2710735e-01  -3.8195285e-01  -3.2530898e-01  -3.5199960e-01  -2.8720683e-01  -3.4425159e-01  -3.8712517e-01  -3.1931826e-01  -2.9691725e-01  -3.5693906e-01  -3.1414487e-01  -2.1275971e-01   9.4141070e-02   6.7227673e-01   1.0693507e+00   8.5355630e-01   9.5859522e-01   1.1969896e+00   1.0916416e+00   8.4853973e-01   1.0395043e+00   1.7027417e+00   1.6818607e+00  -9.0181513e-02
   1.0000000e+00  -6.7762730e-01  -2.3132920e+00  -3.7691755e+00  -4.2593228e+00  -4.1436946e+00  -3.7530410e+00  -2.8641252e+00  -1.7770261e+00  -1.5164250e+00  -1.0854754e+00  -5.8020739e-01  -5.1325892e-01  -5.5521752e-01  -5.2710272e-01  -5.0022634e-01  -4.6568510e-01  -4.9963793e-01  -4.4626736e-01  -4.4895849e-01  -4.7482880e-01  -3.9198915e-01  -4.7070320e-01  -4.9316964e-01  -4.3279948e-01  -4.8522741e-01  -5.2195676e-01  -5.1175532e-01  -5.0224438e-01  -5.2840907e-01  -5.0020211e-01  -5.1534713e-01  -5.9345897e-01  -5.8546318e-01  -5.8566474e-01  -5.5422976e-01  -5.8938882e-01  -5.7637055e-01  -4.9121181e-01  -5.3712713e-01  -4.9206788e-01  -3.5973018e-01  -3.4649777e-01  -3.5667535e-01  -3.3183722e-01  -2.7229136e-01  -1.1438115e-01  -1.6977119e-01  -3.9945611e-02   3.1596628e-02  -4.6967535e-02  -2.7182614e-02  -2.7031943e-02  -5.2933580e-02   3.8792224e-02  -6.4332838e-03   3.7088977e-02   3.9175269e-02   6.0187490e-02   9.3252782e-02   3.9248815e-02   9.5789170e-02   2.4148622e-02   1.1147850e-01   7.8479204e-02   1.7903325e-01   2.0233033e-01   2.1643347e-01   2.1737164e-01   3.3824905e-01   3.4743170e-01   3.9705823e-01   4.6847344e-01   4.1893530e-01   5.5239711e-01   4.8684138e-01   6.0299621e-01   6.1859421e-01   6.2553777e-01   5.6438851e-01   5.7180902e-01   6.2143671e-01   5.8537725e-01   5.9383237e-01   5.5599531e-01   5.6291546e-01   5.9428707e-01   5.3750936e-01   4.9658807e-01   4.9068728e-01   5.2227877e-01   5.4754165e-01   4.4624125e-01   4.8617480e-01   5.8504838e-01   5.0910105e-01   7.3079495e-01   8.5821908e-01   9.6409075e-01   1.0900181e+00   1.2534450e+00   1.4318978e+00   1.6562590e+00   1.7559823e+00   1.6249219e+00   1.6537360e+00   1.5489034e+00   1.3957822e+00   1.2144773e+00   9.7376251e-01   6.9084220e-01   3.9584688e-01   2.0118481e-01   7.3754163e-02   5.3967364e-02   3.9515205e-02   7.2374903e-02   2.3703663e-02   6.6283299e-02  -3.1516163e-02   2.6435013e-02   1.7057715e-03  -4.2302729e-02  -6.6512464e-02   2.1966199e-02   8.3491682e-03  -3.6268471e-02   2.8117178e-02   1.3153201e-01   4.0244737e-01   8.9874170e-01   1.0654215e+00   1.0220842e+00   1.1409318e+00   1.0455819e+00   8.8985740e-01   6.3434416e-01   1.0667916e+00   1.3769379e+00   4.0049504e-01  -1.6659753e+00
   2.0000000e+00  -5.2883435e-01  -1.3653301e+00  -1.6979239e+00  -2.2342663e+00  -2.4106752e+00  -2.5252469e+00  -2.2828750e+00  -2.0915366e+00  -1.5549592e+00  -8.9878639e-01  -4.9266088e-01  -3.5593800e-01  -2.1157192e-01   1.3000216e-01   3.5700288e-01   4.3747245e-01   4.7688105e-01   4.7293653e-01   5.0959291e-01   4.5892915e-01   4.6593605e-01   5.4233768e-01   4.4844663e-01   4.5401852e-01   5.3229329e-01   5.3239425e-01   4.7623240e-01   4.8378575e-01   4.9227394e-01   4.2928096e-01   4.6593605e-01   4.0324698e-01   3.9680998e-01   4.4503657e-01   3.7388403e-01   3.3947365e-01   4.0795459e-01   3.6508208e-01   3.3149215e-01   3.9496792e-01   2.8506871e-01   2.4039537e-01   3.3600496e-01   2.8622351e-01   2.1289172e-01   2.2361741e-01   1.9412177e-01   1.5194981e-01   1.6378992e-01   1.3464120e-01   1.2228810e-01   1.9325642e-01   1.7674035e-01   2.2909300e-01   2.4459855e-01   1.8648793e-01   1.7683629e-01   1.9044196e-01   2.6656566e-01   2.6203665e-01   2.4889524e-01   3.1897730e-01   3.1746234e-01   3.8462341e-01   4.4826978e-01   4.9836354e-01   4.8090695e-01   4.5528719e-01   4.8767759e-01   5.1037986e-01   5.5636973e-01   4.4005996e-01   4.5259774e-01   4.5772698e-01   4.0358919e-01   4.3326307e-01   4.1092627e-01   3.3706331e-01   3.5635392e-01   4.1478038e-01   4.2976259e-01   4.3943040e-01   3.1997443e-01   3.3395769e-01   3.7120657e-01   3.5127743e-01   3.1882414e-01   2.8999224e-01   3.5747216e-01   4.1759608e-01   3.9358912e-01   3.1932774e-01   3.7778172e-01   3.2473016e-01   3.9792672e-01   4.5568721e-01   4.3045670e-01   4.1486364e-01   4.1404828e-01   5.4699488e-01   5.0210952e-01   5.1325301e-01   5.6880589e-01   5.7610701e-01   5.2175111e-01   6.1354941e-01   6.6339469e-01   6.6664502e-01   7.1996701e-01   6.8469693e-01   7.3723707e-01   7.2016930e-01   7.4332373e-01   6.6937171e-01   6.8172545e-01   7.2125777e-01   6.2340632e-01   5.4233250e-01   3.4362703e-01   1.8803319e-01   2.1272177e-01   2.6561011e-01   2.8557564e-01   2.4741809e-01   8.3743332e-02   1.4620175e-02  -7.0514638e-02  -1.1998911e-01  -5.3378565e-02  -2.1581250e-01  -5.6500782e-01  -1.0423032e+00  -1.6272230e+00  -2.1441444e+00  -2.7638123e+00  -3.2972836e+00  -4.3129909e+00  -4.0217589e+00  -3.9511525e+00  -2.2937000e+00
   4.0000000e+00   3.7833478e-01  -4.7093356e-01  -1.7420883e+00  -2.6159655e+00  -3.2858875e+00  -3.6588256e+00  -3.5957614e+00  -3.0646258e+00  -2.2667722e+00  -1.6503151e+00  -1.1757327e+00  -1.0877008e+00  -8.4944242e-01  -4.1323588e-01   2.0871436e-03  -4.4417226e-02  -1.6620224e-01  -5.3628131e-02  -9.1427732e-02  -7.5430083e-02  -1.0844997e-01  -1.0774208e-01  -7.2537891e-02  -1.1602792e-02  -1.3167908e-01  -1.1017350e-01  -2.0301519e-02  -1.1779923e-01  -1.4162084e-01  -9.7502248e-02  -1.7817335e-01  -1.3440063e-01  -1.1959168e-01  -1.6653434e-01  -9.4403289e-02  -2.1413958e-01  -2.1275908e-01  -2.9686894e-01  -2.7595061e-01  -2.7255324e-01  -3.5149463e-01  -3.3493905e-01  -3.6367815e-01  -3.6861497e-01  -4.1099151e-01  -4.1111344e-01  -4.5934467e-01  -4.4504731e-01  -4.4377237e-01  -4.3463699e-01  -5.1543752e-01  -5.5174769e-01  -5.7723067e-01  -4.8012710e-01  -6.0597810e-01  -6.7436872e-01  -6.4419214e-01  -5.4708752e-01  -6.0691199e-01  -6.2394777e-01  -6.7037218e-01  -6.9314035e-01  -7.0613578e-01  -6.3889151e-01  -6.1708595e-01  -5.9991067e-01  -5.9273499e-01  -5.3182510e-01  -5.7292846e-01  -4.1522317e-01  -4.1661025e-01  -3.0401428e-01  -3.4664326e-01  -2.8556808e-01  -2.3362790e-01  -2.1687817e-01  -1.2926951e-01  -3.6276342e-02  -4.2999546e-02  -1.0105601e-01  -3.6970142e-02  -2.9703845e-02   2.1505036e-02   8.4865547e-02   6.3182235e-02   8.9753413e-02   1.6801560e-01   1.3342548e-01   5.6436800e-02   1.1248553e-01   1.5795837e-01   2.4448089e-01   2.2540565e-01   1.2973575e-01   3.2320212e-01   2.8194166e-01   2.2096562e-01   4.0062649e-01   4.0967076e-01   4.2308978e-01   4.6842098e-01   4.6129138e-01   4.2914934e-01   4.4204254e-01   5.0449311e-01   5.6975885e-01   5.8174487e-01   5.9626680e-01   6.1428000e-01   7.0393188e-01   7.3294542e-01   7.4873538e-01   8.1808686e-01   7.3358200e-01   7.6897470e-01   7.7776767e-01   7.7991212e-01   8.4555777e-01   7.8479577e-01   8.1451743e-01   8.4652270e-01   8.1660023e-01   8.9063458e-01   8.4203916e-01   9.4659173e-01   1.1037497e+00   1.2849131e+00   1.7947688e+00   2.0452334e+00   2.0060643e+00   1.8640631e+00   1.5734610e+00   1.4361231e+00   1.4979832e+00   2.1550545e+00   2.6772560e+00   2.2449175e+00   1.5572186e+00   1.2159251e+00   1.3591605e+00
   2.0000000e+00  -7.0032354e-01  -1.1397020e+00  -1.4760542e+00  -1.8568246e+00  -2.0651678e+00  -2.0641111e+00  -1.9506368e+00  -1.6637274e+00  -1.1762028e+00  -8.6446658e-01  -8.2871453e-01  -6.9594109e-01  -4.7623666e-01  -3.4781538e-01  -3.3606236e-01  -3.1219532e-01  -3.0938749e-01  -2.3917530e-01  -3.0585900e-01  -2.7965164e-01  -2.7438172e-01  -3.0236532e-01  -2.9539930e-01  -2.6396093e-01  -2.5314308e-01  -2.3599552e-01  -2.7723214e-01  -2.5757387e-01  -2.4680053e-01  -2.5067973e-01  -2.5784847e-01  -2.4771181e-01  -2.1907159e-01  -2.2563408e-01  -2.4356843e-01  -2.6155295e-01  -2.4911665e-01  -2.7737187e-01  -3.0758537e-01  -2.8205188e-01  -2.9025215e-01  -2.8889201e-01  -2.9867428e-01  -2.5179016e-01  -2.4789292e-01  -2.7635090e-01  -2.9176858e-01  -2.7145908e-01  -2.5593874e-01  -2.6332188e-01  -2.4038382e-01  -1.7120356e-01  -1.5955178e-01  -1.5255155e-01  -1.2412292e-01  -1.4412173e-01  -5.8961654e-02  -4.8859044e-03  -3.2604792e-02   8.5013695e-03  -4.7711790e-03   8.9444109e-03   1.9338746e-02   1.1743128e-02   6.5196086e-03   3.6919571e-02   4.7053087e-02   3.0140759e-02   2.3851748e-02   1.2647569e-02   2.3041412e-02   5.4790237e-06  -2.2491483e-02  -4.3811879e-02   9.4471329e-03  -1.8199570e-02  -4.8523488e-02  -1.3824885e-03  -3.7544646e-03  -9.5344527e-03   1.5303895e-02   1.2208873e-02   1.2535600e-02   4.9225667e-02  -2.7590763e-04   2.5878706e-02   7.0934115e-02   6.5487147e-02   9.1381170e-02   6.3532174e-02   1.4195738e-01   2.1020664e-01   1.3597455e-01   1.6836581e-01   1.8668845e-01   2.0328467e-01   2.5147795e-01   2.4993404e-01   2.5202717e-01   2.3480822e-01   2.3643012e-01   2.7190043e-01   2.8194138e-01   2.9051573e-01   3.5349327e-01   3.9140090e-01   4.2259765e-01   5.3544338e-01   6.9847807e-01   8.6318601e-01   1.0611996e+00   1.2081826e+00   1.2491357e+00   1.4374404e+00   1.6451608e+00   1.8642970e+00   2.0504299e+00   2.1838256e+00   2.3359952e+00   2.4156449e+00   2.5775135e+00   2.5678787e+00   2.5887094e+00   2.5756124e+00   2.4463377e+00   2.1691996e+00   1.7425777e+00   1.4006636e+00   1.0602768e+00   2.6798935e-01  -3.6629831e-01  -6.3768112e-01  -8.1891752e-01  -9.6276298e-01  -1.1727330e+00  -1.6960269e+00  -2.1961909e+00  -2.4594897e+00  -2.6406770e+00  -2.6272720e+00
   1.0000000e+00  -7.1966028e-01  -3.2221184e+00  -4.2270811e+00  -4.2798287e+00  -4.2183620e+00  -3.4385341e+00  -1.9153041e+00  -1.2617816e+00  -9.1026930e-01   1.0233259e-02   3.4477545e-01   3.2352880e-01   3.6015816e-01   4.6995702e-01   4.4253256e-01   2.9100346e-01   3.7323946e-01   3.7257520e-01   3.9209215e-01   3.2573217e-01   2.1947680e-01   1.6962486e-01   1.4385635e-01   1.2294499e-01   4.2754348e-02  -8.4118050e-02  -1.2686390e-03  -5.4910926e-02  -1.0242329e-01  -1.1952334e-01  -5.6773843e-02  -2.5556793e-01  -3.2123989e-01  -3.7377122e-01  -3.4860026e-01  -3.0762131e-01  -3.7822695e-01  -3.4057642e-01  -2.7399558e-01  -2.4246411e-01  -1.0267112e-01  -8.9543363e-02  -2.4452715e-02   1.9902177e-01   2.6565458e-01   2.8818616e-01   3.5336996e-01   3.4433938e-01   2.5864066e-01   3.4011650e-01   4.1498190e-01   4.6568213e-01   4.7257260e-01   4.3612096e-01   3.5637741e-01   4.1181783e-01   4.4447769e-01   4.7285605e-01   5.5019543e-01   4.0002971e-01   3.8513270e-01   4.7927996e-01   5.7444307e-01   5.2826773e-01   7.1590199e-01   6.7283462e-01   6.5134601e-01   5.8146191e-01   5.5815963e-01   6.1013214e-01   5.9952510e-01   5.8053368e-01   5.0987286e-01   5.9364764e-01   5.8290982e-01   5.7486067e-01   6.4361694e-01   4.9314856e-01   4.1815313e-01   4.0397793e-01   3.8590015e-01   3.1420398e-01   3.3675501e-01   2.5963256e-01   2.7894356e-01   1.6231333e-01   3.0861622e-01   1.5920467e-01   8.8355116e-02   6.6698161e-02   1.3745484e-02   7.3468067e-02   2.6688791e-02  -5.2431709e-03  -7.3357902e-02   1.1505878e-01   2.8284311e-01   6.0884346e-01   6.8578779e-01   7.1374180e-01   9.9103769e-01   1.1972549e+00   1.5779736e+00   1.7959466e+00   1.7117693e+00   1.5955520e+00   1.3549174e+00   1.1685387e+00   8.4942277e-01   4.7584581e-01   1.9650959e-01  -1.9352603e-01  -5.4214043e-01  -7.7661433e-01  -9.1452237e-01  -8.5947066e-01  -1.0062623e+00  -9.9960426e-01  -9.7095838e-01  -1.0063631e+00  -1.0107398e+00  -1.0364271e+00  -9.9123941e-01  -9.8324614e-01  -1.0508879e+00  -9.1805925e-01  -9.0445103e-01  -1.0089991e+00  -7.4315565e-01  -8.3105844e-02   4.1666256e-01   5.1345966e-01   1.0024544e+00   1.3602009e+00   9.3834980e-01   3.3021365e-01   1.9434208e-01   7.4038962e-01   5.9926616e-01  -2.1779764e+00
   1.0000000e+00  -9.5417606e-01  -3.2632777e+00  -4.1267726e+00  -4.3090110e+00  -3.8694288e+00  -3.4450371e+00  -2.1089572e+00  -1.1241650e+00  -9.8496161e-01  -3.7869950e-01  -4.2460576e-03   6.5199096e-02  -9.0993827e-02  -4.2498193e-02  -9.8326115e-02  -1.2728524e-01  -1.3960073e-01  -8.3193660e-02  -1.7421369e-01  -2.0365095e-01  -1.0364259e-01  -1.2572025e-01  -1.5707862e-01  -1.8827346e-01  -1.9656660e-01  -2.3739387e-01  -3.8026323e-01  -2.8479353e-01  -3.0939602e-01  -3.1032210e-01  -4.8904278e-01  -5.0319974e-01  -5.0612304e-01  -5.2348489e-01  -5.0696690e-01  -5.2037967e-01  -7.0648593e-01  -5.1771139e-01  -5.5214481e-01  -5.8646166e-01  -4.3767505e-01  -4.6129797e-01  -2.7283860e-01  -2.4052636e-01  -2.1905852e-01  -1.9113350e-01  -5.4179743e-02  -5.2320298e-02  -6.4433020e-02   2.7578240e-02   3.7825132e-02   4.5569074e-02   8.8665976e-02   5.7659693e-04  -5.0085528e-02   3.6240078e-02  -7.9173241e-03   3.3559823e-03  -5.7946589e-02   2.9316750e-02   6.7168580e-02   4.9021871e-02   1.0555110e-01   1.5002280e-01   5.8730768e-02   1.7348794e-01   1.3369850e-01   1.1956530e-01   1.0246037e-01   1.2491416e-01   2.6266811e-01   2.5845511e-01   3.8565118e-01   4.5303740e-01   3.9076658e-01   4.2399219e-01   3.9928278e-01   4.5879638e-01   4.2821432e-01   3.6367470e-01   4.1186775e-01   4.2491912e-01   3.8955760e-01   3.5025627e-01   3.5455378e-01   3.3532126e-01   3.3060011e-01   2.8894688e-01   3.4468210e-01   3.5007271e-01   3.6698122e-01   4.2099601e-01   3.0325579e-01   4.5216127e-01   5.5879020e-01   7.5625055e-01   9.3609071e-01   1.0581653e+00   1.2935119e+00   1.4561220e+00   1.7621969e+00   2.0276887e+00   2.0703580e+00   2.1681549e+00   1.8749183e+00   1.5631640e+00   1.4687255e+00   1.1886855e+00   8.7552153e-01   5.8525605e-01   7.1050378e-02  -1.3405045e-01  -1.8847991e-01  -2.4864414e-01  -2.7120336e-01  -2.9166417e-01  -2.0548325e-01  -1.9735546e-01  -2.3703152e-01  -1.7441706e-01  -2.3895972e-01  -1.7845961e-01  -1.1660180e-01  -1.9124887e-01  -1.2203542e-01  -1.6140984e-01   1.9362299e-03   7.5694203e-02   4.1945757e-01   8.4792991e-01   8.3826179e-01   1.0470323e+00   9.8780162e-01   9.9236903e-01   1.1094492e+00   8.2821806e-01   1.1241944e+00   9.8404824e-01  -3.5536422e-01  -2.6829347e+00
   1.0000000e+00  -1.3120734e+00  -2.4767493e+00  -3.1650570e+00  -3.8114743e+00  -4.1131036e+00  -3.7160803e+00  -2.6616216e+00  -1.7654704e+00  -1.4067776e+00  -1.1003100e+00  -5.9507816e-01  -3.8190498e-01  -4.4163887e-01  -5.1568338e-01  -4.5445002e-01  -3.9496304e-01  -4.2626986e-01  -4.0780996e-01  -3.7629167e-01  -2.8406214e-01  -3.7082514e-01  -4.0823421e-01  -4.8993757e-01  -4.2361094e-01  -4.0866023e-01  -4.1079151e-01  -2.7737818e-01  -4.6818100e-01  -5.1229867e-01  -3.8986384e-01  -4.6852098e-01  -5.0006214e-01  -5.2356812e-01  -4.4049201e-01  -4.3931468e-01  -5.4780875e-01  -5.6640506e-01  -5.1095724e-01  -5.0691732e-01  -5.2501438e-01  -5.6755454e-01  -4.3404824e-01  -2.1319982e-01  -1.3903562e-01  -1.8261230e-01  -1.1249109e-01  -2.1127810e-02  -5.5471247e-02   7.0597925e-02   2.0351834e-01  -2.0404732e-02   2.9994929e-02   1.1263312e-01   5.8080783e-02   1.0421625e-01   8.9740774e-02   7.7894306e-02   1.1602468e-01   1.6946326e-01   6.6657734e-02   5.6344136e-02   1.1178472e-01   1.9882089e-01   2.2038791e-01   1.9231056e-01   2.3270491e-01   3.0111780e-01   2.4622261e-01   2.1596490e-01   3.2741112e-01   3.8072655e-01   4.4079556e-01   5.1929691e-01   5.2966300e-01   5.6891700e-01   5.8602845e-01   5.6768328e-01   5.8563728e-01   5.1606059e-01   7.4386435e-01   6.8214433e-01   5.7880468e-01   5.0040341e-01   5.4983395e-01   5.0378925e-01   5.0301046e-01   4.5978521e-01   6.0314916e-01   6.1708452e-01   5.6842012e-01   5.1228819e-01   5.9838004e-01   5.8763319e-01   4.4621226e-01   6.0915141e-01   8.1941608e-01   9.9754985e-01   1.2182465e+00   1.3515327e+00   1.5125756e+00   1.7993479e+00   2.0266718e+00   2.1413668e+00   2.1137438e+00   1.9751873e+00   1.8041245e+00   1.5304979e+00   1.4030325e+00   1.3074916e+00   1.0061910e+00   8.0208423e-01   3.9892545e-01   1.3737474e-01   3.1618294e-02  -1.4480645e-01  -1.1335899e-01  -1.2475615e-01  -1.6175543e-01  -4.1287227e-03   2.8327524e-03  -6.5569928e-02  -8.1574388e-02  -1.2643006e-01  -1.0023329e-01  -1.1227389e-01  -5.5330587e-02  -7.5576705e-02  -9.2652733e-02   3.3137635e-01   9.8437643e-01   1.5149964e+00   1.2329828e+00   6.3572060e-01   2.5703348e-02  -4.8884042e-01  -9.8251875e-01  -1.0122929e+00  -6.9700345e-01  -2.5160512e-01  -6.3325684e-01
   1.0000000e+00  -5.6612925e-01  -2.0514475e+00  -3.0258876e+00  -3.5637756e+00  -3.8184559e+00  -3.6656755e+00  -3.0608374e+00  -2.0468450e+00  -1.6166727e+00  -1.4941711e+00  -9.6191174e-01  -7.6235818e-01  -6.4318434e-01  -6.4719850e-01  -6.1709172e-01  -5.8514383e-01  -5.8418633e-01  -6.7705509e-01  -5.6518001e-01  -6.6559455e-01  -5.9668614e-01  -6.0281892e-01  -6.0679264e-01  -6.1599062e-01  -5.7472233e-01  -5.5749838e-01  -5.9321810e-01  -5.8778442e-01  -5.6523494e-01  -5.9842136e-01  -6.3424258e-01  -6.0948877e-01  -6.6806472e-01  -6.4594574e-01  -7.1450321e-01  -6.2657537e-01  -6.5431443e-01  -6.5077414e-01  -5.5281159e-01  -5.4462708e-01  -5.1121234e-01  -4.9327572e-01  -4.4936422e-01  -3.9997365e-01  -3.3708797e-01  -2.5729800e-01  -2.1743525e-01  -1.3896970e-01  -1.3602949e-01  -1.0174790e-01  -1.5318778e-01  -5.7342484e-02  -7.5103511e-02  -6.6988278e-02  -9.7867490e-02  -1.0102476e-01  -1.2489301e-01  -1.5034868e-01  -7.7954667e-02  -5.1462006e-02  -4.5737347e-02   4.9399487e-03  -3.4760953e-02  -3.5220775e-02   2.5869544e-02  -2.5588278e-03   7.3031262e-02   7.2260247e-02   1.7952652e-01   2.4004868e-01   2.5151273e-01   2.9332744e-01   3.4371954e-01   3.6067730e-01   4.0045824e-01   4.9392190e-01   4.7744190e-01   5.2327851e-01   5.1813090e-01   5.5635534e-01   5.2835036e-01   6.0473495e-01   5.2071613e-01   4.4858162e-01   5.4311000e-01   5.4307249e-01   5.3698686e-01   5.4615048e-01   5.6561613e-01   5.1706029e-01   5.3313743e-01   4.9292591e-01   5.2207915e-01   5.3475568e-01   6.3990864e-01   7.3305116e-01   9.1039067e-01   1.0686246e+00   1.2393411e+00   1.3412814e+00   1.4958637e+00   1.7118195e+00   1.9900384e+00   1.9917914e+00   1.9120778e+00   1.8461662e+00   1.6816354e+00   1.5523189e+00   1.3988310e+00   1.1636165e+00   9.3279568e-01   6.7885029e-01   3.9763216e-01   2.9535897e-01   3.4170128e-01   2.7694670e-01   2.9289745e-01   2.3072418e-01   3.2506891e-01   3.3969959e-01   3.0539614e-01   3.0727646e-01   3.5717452e-01   1.9188849e-01   1.6918895e-01   1.9681351e-01   1.8850405e-01   3.3389994e-01   6.3116810e-01   1.1637961e+00   1.5614183e+00   1.4481920e+00   1.2370671e+00   7.1647015e-01   3.4542333e-01  -1.6641866e-01  -2.0838305e-01   3.3800335e-01   4.2488145e-01  -6.4580683e-01
   1.0000000e+00  -2.1582865e-01  -1.6018654e+00  -2.9745217e+00  -4.9508137e+00  -5.1753806e+00  -3.9486033e+00  -2.3773011e+00  -1.5371686e+00  -1.0597269e+00  -2.1681277e-01  -4.5999423e-03  -4.9705674e-02  -1.6504099e-02  -3.6189856e-02  -1.7634303e-01  -1.7582490e-01  -1.4615959e-01  -1.4698249e-01  -2.1740673e-01  -8.1323392e-02  -6.3794040e-02  -4.6837218e-01  -4.6010197e-01  -2.9868010e-01  -3.4344599e-01  -3.9112326e-01  -5.7744497e-01  -5.7416030e-01  -4.9458951e-01  -6.2954902e-01  -7.4663093e-01  -8.7481179e-01  -8.0070709e-01  -8.1881403e-01  -1.0035763e+00  -9.4727313e-01  -8.0818602e-01  -7.8498228e-01  -9.1380671e-01  -7.8592823e-01  -8.1638646e-01  -5.4232631e-01  -3.3125424e-01  -3.5514709e-01  -2.4206077e-01  -1.5836945e-01  -1.2368442e-01  -8.4657041e-02   3.4321311e-02   5.8370113e-02  -1.0113365e-02   1.5990651e-02   3.9673865e-02   5.6903096e-02  -1.0068739e-01   1.9094645e-01   2.3987035e-01   1.3581013e-01   2.8699873e-01   2.3100420e-01   2.4855353e-01   3.1339885e-01   2.7848610e-01   3.9861222e-01   4.8169722e-01   5.3134432e-01   5.3477741e-01   7.2264088e-01   7.4302342e-01   6.9513950e-01   8.0623318e-01   8.9992552e-01   8.6475173e-01   8.4211184e-01   9.4295833e-01   7.9351490e-01   7.7162799e-01   7.5354508e-01   8.2360428e-01   7.7724792e-01   7.8088393e-01   7.1650422e-01   5.7844165e-01   6.1715027e-01   5.9835542e-01   4.8675311e-01   5.8954426e-01   5.5986593e-01   5.7168725e-01   5.4523466e-01   5.6139175e-01   4.3660102e-01   3.5951037e-01   2.7871866e-01   3.9161481e-01   3.4564038e-01   2.9973262e-01   5.5812228e-01   3.6313202e-01   3.6691672e-01   4.5028857e-01   3.3785407e-01   5.5041557e-01   5.7330550e-01   7.2524902e-01   1.0116431e+00   1.3119129e+00   1.0627500e+00   7.7413373e-01   7.3920732e-01   6.2311413e-01   6.2531515e-01   7.2548566e-01   5.9851636e-01   4.1120288e-01   7.0918278e-02  -3.4127048e-02  -2.9046274e-02  -1.1770887e-01  -1.2435804e-01  -6.7608287e-02  -7.6829231e-02  -1.3561055e-01  -1.1985167e-01  -2.3495096e-02  -1.7453191e-01  -8.1796590e-02  -8.6818163e-03   1.8732018e-02   5.7751824e-01   1.4502127e+00   1.8781921e+00   1.7681477e+00   1.8212613e+00   1.4551264e+00   3.4472078e-01  -4.5142208e-01  -8.4177921e-01  -3.6834605e-01  -1.1091886e+00
   1.0000000e+00  -1.5839675e+00  -2.6738669e+00  -2.9482802e+00  -3.6626253e+00  -3.8565073e+00  -3.4691079e+00  -2.8667945e+00  -1.9024371e+00  -1.2181255e+00  -1.0409242e+00  -6.0147833e-01  -3.3919835e-01  -3.4040770e-01  -2.6769731e-01  -1.9560399e-01  -2.1835316e-01  -1.2574466e-01  -2.1671346e-01  -2.1306943e-01  -2.0268844e-01  -2.1470211e-01  -1.8430579e-01  -2.0954112e-01  -1.9509749e-01  -1.7670498e-01  -2.5513542e-01  -3.3346814e-01  -3.0893045e-01  -1.7545815e-01  -8.4347287e-02  -1.4470826e-01  -2.9811513e-01  -3.5026466e-01  -3.2213318e-01  -1.6528651e-01  -1.6529043e-01  -1.7453076e-01  -1.7824067e-01  -2.5558154e-01  -4.8900235e-02   9.4208825e-03  -2.3903601e-01  -1.3871985e-01  -5.5150907e-02  -1.5426035e-02   6.5549498e-02   1.5203466e-01  -5.3558106e-02   6.0182193e-02   1.9692706e-01   1.6659061e-01   2.1494339e-01   2.8405514e-01   1.8772145e-01   2.8003182e-02   6.5081539e-02   1.6363256e-01   2.0011441e-01   6.1160745e-02   2.7328905e-02   1.1312375e-01   1.6889185e-01   1.3691193e-01   1.5302113e-01   2.0175779e-01   1.2149571e-01   1.1947298e-01   1.9524520e-01   2.0395642e-01   1.6391283e-01   2.4534771e-01   3.1460231e-01   2.1826320e-01   2.3914636e-01   2.1225678e-01   3.6203069e-01   5.0312410e-01   4.2289471e-01   2.9319369e-01   3.6162134e-01   3.6602092e-01   4.5430653e-01   5.8873580e-01   5.5070117e-01   4.8691000e-01   5.9447858e-01   6.2970147e-01   5.0312487e-01   5.3698023e-01   6.1007111e-01   7.5717538e-01   7.6483124e-01   9.5658575e-01   1.1537658e+00   1.3514033e+00   1.4596017e+00   1.8521499e+00   2.0532568e+00   2.0737204e+00   2.0497693e+00   2.0891264e+00   1.9425251e+00   1.7009466e+00   1.6173879e+00   1.3572346e+00   1.0613759e+00   7.8724481e-01   5.1305135e-01   1.7061905e-01  -2.3484327e-03  -8.8800979e-02  -6.7242065e-02  -5.3490474e-02   8.7259841e-03   2.1779075e-02  -5.3577878e-02  -2.1120841e-01  -1.5832664e-01  -7.1298628e-02  -1.6375435e-02  -8.9503188e-02  -2.5617220e-02   1.9915705e-02   1.5472536e-02   5.0934163e-02   3.8082387e-02   3.6430609e-01   9.6370289e-01   1.3463869e+00   1.3555723e+00   9.5834022e-01   2.0358156e-01  -6.9460825e-01  -1.2450096e+00  -1.4165184e+00  -1.3713978e+00  -9.2170479e-01  -7.7566972e-01  -1.0520870e+00  -2.0116092e+00
   2.0000000e+00   5.0562275e-01   3.2856717e-01  -2.3952487e-01  -7.8582409e-01  -9.6844815e-01  -1.2415522e+00  -1.3939275e+00  -1.4274432e+00  -1.1411648e+00  -9.1230699e-01  -7.5624264e-01  -6.1725895e-01  -4.4147939e-01  -1.8876886e-01  -1.2483022e-01  -1.1865273e-01  -7.6595034e-02  -9.5477024e-02  -1.2946982e-01  -1.0318642e-01  -8.5843487e-02  -5.7315095e-02  -9.3654372e-02  -1.1696204e-01  -1.1981873e-01  -9.4124307e-02  -1.1836481e-01  -1.2381751e-01  -1.0139930e-01  -1.6251112e-01  -1.3536851e-01  -1.5833266e-01  -1.2667576e-01  -9.5558746e-02  -1.6746609e-01  -1.6758964e-01  -1.8657025e-01  -1.8142879e-01  -1.8100055e-01  -2.3750517e-01  -2.1248498e-01  -2.2044025e-01  -1.6418760e-01  -2.4362849e-01  -2.5789075e-01  -2.9609603e-01  -3.0082297e-01  -3.0843109e-01  -3.2218842e-01  -3.4854481e-01  -3.4809766e-01  -3.3344232e-01  -3.6857393e-01  -3.2838839e-01  -3.8147855e-01  -3.9395357e-01  -3.7720236e-01  -3.4694880e-01  -3.2029103e-01  -3.2209785e-01  -2.9143251e-01  -2.4953798e-01  -2.3103514e-01  -2.0773017e-01  -1.7326861e-01  -1.4857507e-01  -1.2395943e-01  -1.0792897e-01  -8.5012130e-02  -4.5479539e-02  -3.0862358e-02   7.1589996e-03   1.5226422e-02   3.1947276e-02   3.8130458e-02   5.3573782e-02   6.1096948e-02   5.7721095e-02   5.6515585e-02   7.8111650e-02   8.8631504e-02   1.0933425e-01   8.9334621e-02   1.2279002e-01   1.1104792e-01   1.2251680e-01   1.0782366e-01   1.1563255e-01   1.2030877e-01   1.1509475e-01   1.7433937e-01   1.3279630e-01   8.7916926e-02   1.5220491e-01   1.3337822e-01   1.8167886e-01   2.0882541e-01   1.6113118e-01   2.1641508e-01   1.6992078e-01   2.1223163e-01   2.3925997e-01   2.3148311e-01   2.7326365e-01   2.9651595e-01   3.4883437e-01   3.7158341e-01   4.6756402e-01   5.0400518e-01   5.8971385e-01   7.2902121e-01   8.5670100e-01   9.5464481e-01   1.0036217e+00   1.0921511e+00   1.2056340e+00   1.3968830e+00   1.5338046e+00   1.6253459e+00   1.8001685e+00   1.9991313e+00   2.2265732e+00   2.3750111e+00   2.5592069e+00   2.6577351e+00   2.6780294e+00   2.4902615e+00   1.9698456e+00   1.6038281e+00   9.4633626e-01   8.0470381e-02  -4.4604754e-01  -8.0091935e-01  -9.5237840e-01  -1.3760137e+00  -2.2665791e+00  -3.0262159e+00  -3.6879616e+00  -3.8078406e+00  -3.5462261e+00
   1.0000000e+00  -1.9051680e+00  -3.4054309e+00  -3.6116304e+00  -3.8718272e+00  -3.4121242e+00  -2.5580505e+00  -1.2029168e+00  -7.5254155e-01  -3.6459956e-01   1.9654279e-01   3.8969491e-01   3.3595581e-01   6.3209508e-01   7.1636357e-01   6.7140242e-01   5.3225024e-01   5.5186924e-01   5.3961117e-01   3.9522598e-01   2.2710260e-01   3.8927534e-01   3.8179943e-01   3.3327373e-01   5.6902019e-01   3.9606449e-01   2.5008721e-01   2.8919803e-01   3.2787778e-01   2.5272795e-01   1.2691482e-01   1.9181168e-02   1.1416498e-02   1.2751922e-02  -8.9602843e-02  -2.4858685e-01   1.8366824e-01   3.7105385e-01   2.3105343e-01   2.2805259e-01   1.9161261e-01   1.7675632e-01   2.9070522e-01   3.0023005e-01   2.8556300e-01   2.3822906e-01   3.1507670e-01   3.9504376e-01   3.1439259e-01   5.1219018e-01   3.6465268e-01   3.8116949e-01   3.6437951e-01   3.8308562e-01   3.5150784e-01   1.8001474e-01   2.7499879e-01   2.1973019e-01   1.9530031e-01   2.1220844e-01   2.3629266e-01   3.1605106e-01   9.7602802e-02   5.7696978e-02   1.7837316e-01   8.0125680e-02  -1.9567460e-03   3.8729231e-02   2.2679405e-01   3.7238311e-01   3.1843766e-01   4.1389503e-01   4.5715141e-01   5.2021711e-01   4.7736744e-01   5.7453835e-01   5.7723243e-01   5.9690031e-01   5.8471891e-01   5.8345404e-01   4.9693238e-01   6.4341001e-01   5.0441749e-01   2.3091014e-01   2.5912496e-01   4.1792316e-01   3.6665901e-01   3.5800177e-01   4.0015995e-01   1.5015479e-01   3.0437285e-01   3.6572741e-01   3.0773199e-01   4.1624315e-01   5.5045864e-01   7.2378728e-01   9.6888073e-01   1.0466854e+00   1.1423766e+00   1.4860832e+00   1.6133486e+00   1.7700053e+00   1.7216416e+00   1.7650493e+00   1.8652410e+00   1.5559278e+00   1.3636990e+00   1.0266834e+00   6.4666931e-01   4.5294761e-01   2.5844244e-01  -2.1405654e-01  -6.0909233e-01  -8.7815647e-01  -9.5285965e-01  -9.2272657e-01  -8.7241507e-01  -8.1616489e-01  -9.1343630e-01  -8.3067626e-01  -9.4255672e-01  -1.1779448e+00  -1.0593930e+00  -1.1136218e+00  -1.1241774e+00  -9.8307193e-01  -1.0082703e+00  -1.1035834e+00  -8.1688601e-01  -4.5109895e-01   3.2206374e-01   6.6126117e-01   5.9219606e-01   2.3298679e-01  -6.6857294e-01  -1.2114366e+00  -1.7844090e+00  -1.9564239e+00  -1.7819164e+00  -1.1282239e+00  -2.4589364e+00
   4.0000000e+00   8.4090082e-01   3.8346575e-02  -1.0777954e+00  -1.8043513e+00  -2.7344910e+00  -3.2969250e+00  -3.2512761e+00  -2.7853039e+00  -2.2726238e+00  -1.7284583e+00  -1.3373428e+00  -1.2150576e+00  -8.6237026e-01  -3.8899466e-01  -1.7635252e-01  -1.4556794e-01  -3.2333899e-01  -2.9501925e-01  -1.2279748e-01  -2.6311416e-01  -2.7371682e-01  -2.5605895e-01  -2.0720034e-01  -3.0643102e-01  -2.1179025e-01  -1.3047965e-01  -2.7569672e-01  -2.7027341e-01  -2.8249638e-01  -3.2440738e-01  -2.5331318e-01  -2.7515506e-01  -2.8099522e-01  -3.3086890e-01  -3.4960157e-01  -3.5889917e-01  -3.8662687e-01  -3.7078421e-01  -3.9587179e-01  -4.2793326e-01  -4.6216322e-01  -4.3384393e-01  -5.4564027e-01  -5.6939641e-01  -4.2177374e-01  -4.9184795e-01  -6.7887651e-01  -6.8013895e-01  -6.6088653e-01  -6.8098802e-01  -7.2626766e-01  -7.8464865e-01  -8.5359452e-01  -8.9842685e-01  -8.3430775e-01  -7.9321028e-01  -7.9143811e-01  -8.4508190e-01  -8.1940922e-01  -8.8329882e-01  -8.9229557e-01  -8.5185232e-01  -8.0292006e-01  -7.7493068e-01  -7.0947711e-01  -7.3443436e-01  -7.5954644e-01  -6.4072260e-01  -6.2759856e-01  -4.8926183e-01  -5.1071409e-01  -3.9519219e-01  -2.8135811e-01  -3.6091206e-01  -1.5605333e-01  -9.1343047e-02  -1.3272403e-01  -1.3554818e-01  -1.3116999e-01  -1.1545683e-01   7.0871042e-02   9.9051513e-02   1.1495091e-01   1.1476181e-01   1.3520639e-01   1.7992975e-01   2.3138062e-01   1.5326143e-01   2.1874102e-01   1.9493973e-01   2.3943259e-01   2.8997119e-01   3.6539004e-01   3.3320887e-01   4.0811524e-01   4.3335705e-01   4.4869785e-01   4.5593843e-01   5.3512048e-01   5.0643800e-01   5.4360704e-01   5.9198340e-01   6.0233711e-01   7.1698128e-01   7.8489975e-01   8.4900213e-01   8.0919478e-01   7.9770347e-01   9.5941117e-01   9.5254362e-01   8.7703861e-01   8.8048451e-01   8.7478201e-01   9.5682144e-01   9.0751929e-01   9.0953798e-01   9.4671582e-01   9.1125491e-01   8.9148161e-01   9.0915230e-01   9.5763153e-01   8.7758386e-01   9.3525831e-01   9.3423894e-01   1.1156103e+00   1.2664605e+00   1.6185606e+00   1.9279450e+00   2.0439126e+00   1.9231023e+00   1.7274757e+00   1.6160559e+00   1.6357428e+00   1.9460856e+00   2.4685448e+00   2.1637809e+00   1.5013116e+00   1.2001949e+00   1.3528228e+00   1.2057488e+00
   2.0000000e+00  -3.0239126e-02  -6.5479405e-01  -9.1693607e-01  -1.3153675e+00  -1.5533998e+00  -1.9222209e+00  -2.0918010e+00  -1.9472228e+00  -1.8303381e+00  -1.5311087e+00  -1.0826232e+00  -6.9563084e-01  -4.3026112e-01  -3.2722512e-01  -2.4392605e-01  -1.0091465e-01   4.6688182e-02   2.0186743e-01   3.1097684e-01   3.2528496e-01   3.5439741e-01   4.1638664e-01   3.9100607e-01   3.8147822e-01   4.4671018e-01   4.0901888e-01   3.1543529e-01   3.4798250e-01   3.8516833e-01   3.5453120e-01   3.8804306e-01   4.1440608e-01   3.5439741e-01   3.3743760e-01   3.2518970e-01   2.5772024e-01   2.7747010e-01   3.7226226e-01   3.7365618e-01   3.3168566e-01   3.5439741e-01   3.8427726e-01   3.8734927e-01   3.8098356e-01   3.2362649e-01   2.3664456e-01   2.1146475e-01   2.7345555e-01   3.2362649e-01   3.3408579e-01   3.5270491e-01   3.2282135e-01   2.7747010e-01   2.7158006e-01   2.4629276e-01   3.2164065e-01   4.4671018e-01   3.8430283e-01   2.8383368e-01   2.8044995e-01   2.4669918e-01   2.2273157e-01   2.6330679e-01   2.7713950e-01   2.7747010e-01   3.2613205e-01   3.4843024e-01   3.3721904e-01   3.3901195e-01   3.4998153e-01   3.5694776e-01   2.9818667e-01   2.6208464e-01   3.5321398e-01   4.3166520e-01   5.1535887e-01   6.3133572e-01   5.9928153e-01   4.6865349e-01   4.0514704e-01   4.0055380e-01   4.4745670e-01   5.6101472e-01   6.7958913e-01   6.7749210e-01   5.8990670e-01   5.5904079e-01   5.5097672e-01   5.5440841e-01   5.8981965e-01   5.4686676e-01   5.0903953e-01   5.6979387e-01   6.0238061e-01   6.0822920e-01   6.4364449e-01   6.3133572e-01   5.6493738e-01   4.8719406e-01   4.1171628e-01   4.3132472e-01   5.3644228e-01   5.4927680e-01   5.2454627e-01   5.8517933e-01   6.5988792e-01   7.0374976e-01   6.7055732e-01   5.6979387e-01   5.4354522e-01   5.8970036e-01   6.2415474e-01   6.1595026e-01   6.5506696e-01   7.7313827e-01   7.2898383e-01   5.5440841e-01   4.6954289e-01   4.1821869e-01   5.2638780e-01   7.0826303e-01   6.0505906e-01   3.8253239e-01   1.6774325e-01  -1.5332282e-01  -4.1409954e-01  -4.6943518e-01  -3.5772574e-01  -3.5333382e-01  -5.8908859e-01  -8.8048261e-01  -1.1802587e+00  -1.7995672e+00  -2.4419534e+00  -2.8501023e+00  -3.7233733e+00  -4.0920010e+00  -3.9826848e+00  -4.4547578e+00  -2.1895691e+00
   1.0000000e+00  -1.9426476e+00  -4.0672055e+00  -4.0297027e+00  -4.0449718e+00  -3.7519092e+00  -3.1419179e+00  -1.7968275e+00  -1.1699081e+00  -9.4757142e-01  -3.8305814e-01  -1.9388415e-01  -2.6410153e-01  -2.7903660e-01  -2.9029481e-01  -2.9514703e-01  -2.5536952e-01  -2.7555325e-01  -2.5599984e-01  -3.2443767e-01  -3.9018420e-01  -3.3352627e-01  -2.5382214e-01  -2.5198184e-01  -4.2516809e-01  -4.0794706e-01  -4.5954019e-01  -4.0266174e-01  -4.9176234e-01  -4.5418057e-01  -4.4237723e-01  -4.9061649e-01  -4.4892272e-01  -5.7148984e-01  -5.1038471e-01  -5.9999053e-01  -5.8881442e-01  -6.0418572e-01  -5.4544539e-01  -4.9300026e-01  -5.4967015e-01  -4.5670867e-01  -4.0385931e-01  -4.0228399e-01  -2.9945016e-01  -2.9007294e-01  -1.7016070e-01  -1.3648839e-01  -1.5072631e-01  -9.2034447e-02  -6.0339024e-02  -2.2277856e-02  -3.0211562e-02  -2.4551309e-02  -9.0369688e-03  -7.5226325e-02  -1.2831487e-01   2.1128935e-02  -7.4229368e-02   2.0072516e-02  -6.9855719e-02  -5.3500287e-02   9.2542686e-03  -2.1638167e-02   2.0901910e-02   5.4279534e-02   1.1819599e-01   1.2115158e-01   9.0562215e-02   1.6058872e-01   1.2645225e-01   2.5386731e-01   2.9257195e-01   2.5187413e-01   4.3114941e-01   4.0735344e-01   4.5657462e-01   5.7629995e-01   4.0336916e-01   5.0443686e-01   4.7006625e-01   5.3340670e-01   4.4883699e-01   4.0482602e-01   4.0875195e-01   4.6974364e-01   5.2316505e-01   4.7494848e-01   5.2319865e-01   4.5325234e-01   4.3543090e-01   3.2401427e-01   4.4416834e-01   4.5451628e-01   4.0644584e-01   5.0470494e-01   7.9166223e-01   9.2932508e-01   1.0149247e+00   1.1358125e+00   1.2895437e+00   1.5030862e+00   1.8212932e+00   1.8614944e+00   1.7924554e+00   1.7330825e+00   1.5182103e+00   1.4210310e+00   1.2517167e+00   9.2233052e-01   7.7486475e-01   4.7668857e-01   1.4026380e-01  -1.2258686e-01  -1.2244664e-01  -6.0963866e-02   5.4636558e-02  -3.5279224e-02  -9.3562690e-02  -3.9316041e-02  -1.6347234e-01  -1.1359873e-01  -4.6843619e-02  -8.2889628e-02  -3.6697194e-02   5.7859996e-02  -2.4762123e-02   1.2408214e-02   1.0743165e-01   4.7394166e-01   9.7761387e-01   1.1072656e+00   1.2811917e+00   1.6366230e+00   1.5059105e+00   1.3497772e+00   7.8359862e-01   7.4953783e-01   9.8336281e-01   2.4995501e-01  -1.9698597e+00
   2.0000000e+00  -2.1178382e-01  -1.1591783e+00  -1.8667670e+00  -2.5552685e+00  -2.6420857e+00  -3.1784095e+00  -3.2497306e+00  -3.2190901e+00  -2.7812087e+00  -2.2839042e+00  -1.5821561e+00  -1.2308003e+00  -1.1290088e+00  -1.0463645e+00  -8.2776400e-01  -4.9753448e-01  -2.6488584e-01  -2.1914438e-01  -2.9732023e-01  -2.6304525e-01  -3.0620580e-01  -2.9031169e-01  -2.6354564e-01  -2.3705886e-01  -2.2867205e-01  -2.0239845e-01  -1.5862483e-01  -2.1401799e-01  -1.7740969e-01  -1.5687971e-01  -1.4879662e-01  -1.3634488e-01  -1.9356504e-01  -1.5493710e-01  -1.2252047e-01  -1.3512268e-01  -8.3932040e-02  -1.2834900e-01  -1.4608515e-01  -1.0305047e-01  -1.2881673e-01  -7.9700649e-02  -1.0521644e-01  -1.7064469e-01  -1.5531781e-01  -2.0005380e-01  -1.5004442e-01  -5.7831497e-02  -6.8452809e-02  -7.2861148e-02  -7.7318172e-02  -1.0560179e-01  -1.2737640e-01  -8.2550964e-02  -8.3420334e-02  -1.2250023e-01  -7.4287293e-02  -8.8493691e-02  -6.2707549e-02  -6.1073524e-02  -5.5703479e-02   1.8383571e-02   3.0200138e-02   4.2271616e-02   1.0945648e-01   9.5708481e-02   1.0581895e-01   2.3349464e-01   1.8225888e-01   2.0846998e-01   2.3508549e-01   2.4999251e-01   3.7033534e-01   3.5055623e-01   4.1886326e-01   4.9415048e-01   4.7006475e-01   5.5241430e-01   5.4931617e-01   5.8721569e-01   6.0360801e-01   5.6691931e-01   6.2474409e-01   5.9227544e-01   5.9600829e-01   6.4217569e-01   6.9622691e-01   6.9207140e-01   6.8378435e-01   6.8988642e-01   7.5675534e-01   8.0194721e-01   7.4882699e-01   8.2461687e-01   8.6104515e-01   7.4848525e-01   7.7688102e-01   8.9955175e-01   8.9223000e-01   9.1043290e-01   9.1327568e-01   8.7413930e-01   9.4666377e-01   9.4294105e-01   8.8896256e-01   9.3754929e-01   1.0008076e+00   1.0248492e+00   1.0733071e+00   1.0955154e+00   1.0512355e+00   1.0480020e+00   1.0944332e+00   1.1123429e+00   1.1362916e+00   1.1669019e+00   1.0744724e+00   9.6919943e-01   9.7073903e-01   1.0341928e+00   1.1001613e+00   1.0200543e+00   8.6441673e-01   8.0772502e-01   7.9280817e-01   8.4648154e-01   1.0737134e+00   1.0236618e+00   7.9015331e-01   4.9399397e-01  -4.4921412e-02  -4.6857087e-01  -1.0212643e+00  -1.7446446e+00  -2.5640172e+00  -2.6419973e+00  -2.3978997e+00  -1.2273404e+00  -9.7714157e-01   2.2952829e-01
   2.0000000e+00   1.4782053e+00   8.2632263e-01  -4.7261698e-01  -1.2318416e+00  -2.2780339e+00  -2.4029061e+00  -2.2650112e+00  -1.9429439e+00  -1.4581948e+00  -1.0136649e+00  -4.9280934e-01  -1.5480078e-01  -1.5920635e-01  -1.1134380e-01   2.0334806e-01   5.4363823e-01   6.8204261e-01   6.6302841e-01   6.5054944e-01   6.5016085e-01   6.5839618e-01   7.0612102e-01   7.3164077e-01   6.4014050e-01   6.1278590e-01   6.8836761e-01   6.6094446e-01   6.4363898e-01   5.8937430e-01   5.5388125e-01   6.5651150e-01   6.0420653e-01   4.9958999e-01   5.3641680e-01   4.7619286e-01   4.2071725e-01   4.6853113e-01   5.3625607e-01   6.0992029e-01   4.5096472e-01   3.8802373e-01   4.7665548e-01   4.1401394e-01   4.1993966e-01   3.8963128e-01   2.9049103e-01   2.7966134e-01   2.6599155e-01   2.3377437e-01   2.3661190e-01   1.9453896e-01   1.1303895e-01   8.2331518e-02   9.0335713e-02   3.9155951e-02   4.6188966e-02   1.1982075e-01   3.8691480e-02   7.8277489e-02   1.1963391e-01   1.6905876e-02   2.8708412e-02   4.0399032e-02   1.1860965e-01   1.6134646e-01   1.5531576e-01   1.4385520e-01   1.1192295e-01   2.1743355e-01   2.4114287e-01   2.6885857e-01   3.7316671e-01   3.7584072e-01   3.8167532e-01   4.4696746e-01   5.1989945e-01   4.9838902e-01   4.4927281e-01   4.7428765e-01   5.4895833e-01   5.9338118e-01   5.0511398e-01   4.2588525e-01   4.7302444e-01   5.3439354e-01   5.2426805e-01   4.8576937e-01   4.9692354e-01   5.0094237e-01   4.6553794e-01   4.3605850e-01   4.2218412e-01   4.3708946e-01   4.9891509e-01   5.5613042e-01   5.1341453e-01   4.5048089e-01   4.1989117e-01   4.1524658e-01   5.1590976e-01   5.4236309e-01   4.2207144e-01   4.1983779e-01   5.1027155e-01   4.9082076e-01   4.5560526e-01   4.8554734e-01   4.7172824e-01   4.9979475e-01   4.9776636e-01   4.4124523e-01   5.1217932e-01   5.1310480e-01   5.1150901e-01   4.3852687e-01   3.1322783e-01   3.2292763e-01   1.6107739e-01   7.4628986e-02   1.4829553e-01   1.0627976e-01   1.4358069e-02  -1.2682080e-01  -3.0097364e-01  -4.5749223e-01  -5.1712857e-01  -3.5063316e-01  -3.0221670e-01  -6.1949390e-01  -9.9419747e-01  -1.4769312e+00  -2.0710481e+00  -2.6582801e+00  -3.2969355e+00  -3.9344548e+00  -4.2188982e+00  -3.8905767e+00  -3.1919630e+00  -1.9273896e+00  -1.0365774e+00
   1.0000000e+00  -3.8326776e+00  -3.9669498e+00  -2.8384112e+00  -3.9658324e+00  -3.8962183e+00  -3.6016590e+00  -2.5097085e+00  -1.2215512e+00   8.1744310e-02   2.6636932e-01   7.0483909e-01   1.0626294e+00   1.1331370e+00   1.0546868e+00   5.3227747e-01   1.8060221e-01   2.2195586e-01   4.2112848e-01   4.8016462e-01   4.8743146e-01   6.9758781e-01   8.7131010e-01   9.1115082e-01   9.7405748e-01   1.0809788e+00   1.0123791e+00   1.0737664e+00   9.3772807e-01   9.9707893e-01   1.1115333e+00   1.0864530e+00   8.8205085e-01   6.9889231e-01   6.1195050e-01   4.5422057e-01   4.3133149e-01   2.9381186e-01   1.7945795e-01   1.3576094e-01  -1.7812095e-02  -2.1495231e-01  -1.8237638e-01  -1.7626260e-01  -1.1113261e-01  -1.7258695e-01  -3.2512171e-01  -2.4080114e-01  -1.7099368e-01  -1.5876596e-01  -9.6278983e-02  -3.0815372e-03  -8.3788629e-03   7.8304993e-02   2.4504924e-02   1.1979484e-01   2.2966247e-02   5.4694978e-02  -9.5533052e-03  -8.8502305e-03   2.4297624e-03  -1.1280923e-01  -1.5594081e-01  -8.7941298e-02  -5.4240616e-02  -1.8852787e-01  -1.6720521e-01  -1.7146494e-01  -1.7418118e-01  -1.1720433e-01  -2.6997610e-02  -1.0314046e-01  -9.2025382e-02  -6.6361799e-02  -1.6370351e-01  -2.1522012e-01  -1.2340748e-01  -2.8098789e-02   1.9712385e-02  -7.4502074e-02  -1.7898124e-02   5.0491149e-02  -1.1528153e-02  -2.5732547e-02   1.7384722e-02   1.6836665e-02   1.9897775e-02   1.2317480e-01   9.7620902e-02   9.7460689e-02   1.0999024e-01   1.0948109e-01   3.6820189e-03   5.4017662e-02   3.3130791e-02   1.1345065e-01   1.2145707e-02   7.3388331e-02   9.2713387e-02   1.0422330e-01   2.9987569e-02   5.4808635e-02   1.0178861e-01   8.0795434e-02   1.2239531e-01   1.6494498e-02   5.0376493e-02   1.0662230e-01   1.4367260e-01   2.9002539e-01   6.2359878e-01   9.1209922e-01   1.0572256e+00   1.4288233e+00   1.8396291e+00   1.8776528e+00   1.8057131e+00   1.5438180e+00   1.2832691e+00   9.3932969e-01   6.2914030e-01   1.7933696e-01  -2.0550209e-01  -3.8097009e-01  -4.4445486e-01  -4.0132109e-01  -5.1605984e-01  -5.5811717e-01  -5.6505366e-01  -5.0786426e-01  -4.5264124e-01  -5.1072399e-01  -3.5324580e-01  -8.4920119e-02   8.5267383e-01   9.1327116e-01   2.5029616e-01  -6.4295671e-01  -1.4263232e+00  -1.4961401e+00  -1.1984262e+00
   2.0000000e+00  -9.3045955e-01  -1.8867805e+00  -2.4647000e+00  -3.0189788e+00  -2.9024219e+00  -2.7175376e+00  -2.1790801e+00  -1.5775330e+00  -1.1536455e+00  -8.7175123e-01  -8.0017044e-01  -6.7811882e-01  -2.8197945e-01   1.8275813e-01   3.8963936e-01   3.1273048e-01   3.1766902e-01   3.6315158e-01   3.6074516e-01   2.9060786e-01   2.9418228e-01   3.7537823e-01   3.8497257e-01   3.7682330e-01   2.8175302e-01   3.2562329e-01   3.6924906e-01   3.1161709e-01   3.1267459e-01   3.3074883e-01   3.1730407e-01   2.2005010e-01   2.6225507e-01   2.3503581e-01   2.0788168e-01   2.5727189e-01   2.1185069e-01   2.1592523e-01   1.6850794e-01   1.6639322e-01   1.8659486e-01   1.7366133e-01   1.4253438e-01   7.3961174e-02   4.6183616e-02   4.4493265e-02   6.9506698e-02   1.6859289e-02  -6.5343439e-02  -4.6165359e-02  -3.9195393e-03  -3.2206340e-02  -3.1878405e-02   1.4489987e-02  -5.4143289e-02  -8.2605279e-02  -3.1125424e-02  -1.2051606e-01  -1.2767164e-01  -4.7382445e-02  -1.0006367e-01  -6.1094757e-02  -6.4141659e-02  -6.4170293e-02   5.3682497e-02   1.3637543e-01   1.5800420e-01   1.2063619e-01   1.9019354e-01   2.8271176e-01   4.0309394e-01   4.3581597e-01   4.3818569e-01   5.2003730e-01   4.6355587e-01   4.6442979e-01   5.1976211e-01   4.8880218e-01   4.4988213e-01   5.0783624e-01   5.5305147e-01   5.1610527e-01   5.3345664e-01   5.1126886e-01   5.0374229e-01   5.7174438e-01   5.5408303e-01   5.1571352e-01   5.5736843e-01   5.7451901e-01   5.5473610e-01   5.6451236e-01   5.9592389e-01   6.5022452e-01   6.0427053e-01   5.5731011e-01   6.2762949e-01   6.0248880e-01   5.9117148e-01   6.4246564e-01   6.4999467e-01   6.8201971e-01   7.0330114e-01   6.6564793e-01   6.7653293e-01   7.5030631e-01   7.5595251e-01   7.3040059e-01   7.2244857e-01   7.5817397e-01   8.4085414e-01   8.3862567e-01   8.5012301e-01   9.5889235e-01   9.1873084e-01   8.2401989e-01   7.7350559e-01   5.7781890e-01   4.4118564e-01   5.3291424e-01   5.9314896e-01   5.3179368e-01   5.6535623e-01   5.1591082e-01   4.1513318e-01   4.2276852e-01   4.7947915e-01   6.8051229e-01   6.3667628e-01   3.6495150e-01  -1.6319350e-01  -9.2691735e-01  -1.4197675e+00  -1.9589311e+00  -2.6798840e+00  -3.3363863e+00  -4.0342446e+00  -3.5758975e+00  -3.2621644e+00  -1.7300832e+00
   2.0000000e+00  -4.0085806e-01  -1.7561403e+00  -2.4265885e+00  -3.2266767e+00  -3.3931794e+00  -3.2394499e+00  -3.0136618e+00  -2.6935375e+00  -2.1200782e+00  -1.4346722e+00  -1.0390493e+00  -8.9550093e-01  -7.2627195e-01  -4.3771822e-01  -3.9506631e-02   2.0981425e-01   3.0197882e-01   3.0470878e-01   2.4105308e-01   2.8024165e-01   3.4338930e-01   3.8800829e-01   3.0578270e-01   2.1028486e-01   2.4478934e-01   2.6277118e-01   3.0753347e-01   2.9347505e-01   2.6115357e-01   2.6029034e-01   1.8820234e-01   1.6747833e-01   2.0924647e-01   2.2797499e-01   2.0669669e-01   1.9395899e-01   1.6574178e-01   1.2414151e-01   1.2917288e-01   8.4864289e-02   3.9891571e-02   6.0307268e-02   4.8767736e-02   2.9796712e-02  -4.8422424e-02  -1.6338080e-01  -5.8860785e-02  -4.9262672e-02  -1.6585753e-01  -7.3056159e-02  -8.6406760e-02  -1.4274851e-01  -7.7355252e-02  -1.0793617e-01  -7.7873182e-02  -8.4773010e-02  -2.7985550e-01  -2.7083325e-01  -2.2844288e-01  -2.5135041e-01  -1.7584274e-01  -2.0865090e-01  -2.2052355e-01  -1.8079252e-01  -1.9044143e-01  -1.2202655e-01  -3.3354514e-02  -4.3688892e-02  -3.1950767e-02   4.3628508e-02   1.3917856e-01   2.6556925e-01   2.4807220e-01   1.9444165e-01   3.1725541e-01   3.6301859e-01   3.8907742e-01   4.5808169e-01   4.8572702e-01   4.7864707e-01   4.6721089e-01   5.8951809e-01   6.3008259e-01   6.4093341e-01   6.6337827e-01   5.7217659e-01   6.0789281e-01   6.6105837e-01   6.1797050e-01   6.4698455e-01   6.7007454e-01   6.7201360e-01   7.1523526e-01   7.1602590e-01   7.3863652e-01   7.2363873e-01   7.0151336e-01   7.9624952e-01   7.9859875e-01   7.3791903e-01   7.7632646e-01   7.9053219e-01   8.3677384e-01   8.8277605e-01   8.3709494e-01   8.8936874e-01   9.2582384e-01   9.5074185e-01   9.4432542e-01   9.3872775e-01   1.0047485e+00   9.2277545e-01   9.6321237e-01   1.0682100e+00   1.0791751e+00   1.0661360e+00   9.2013125e-01   7.5648483e-01   6.6225928e-01   7.8792877e-01   8.4941686e-01   7.2905549e-01   6.9688803e-01   5.7106588e-01   4.5088116e-01   4.3082115e-01   5.0022534e-01   6.7151900e-01   6.9730549e-01   4.8423331e-01   7.7571767e-02  -5.1571885e-01  -1.0739952e+00  -1.6551977e+00  -2.2243597e+00  -2.8172352e+00  -3.2635749e+00  -2.5989536e+00  -2.1146594e+00  -5.2358945e-01
   1.0000000e+00  -1.7840856e+00  -3.9340796e+00  -4.2660642e+00  -4.1432720e+00  -3.6928435e+00  -2.9406694e+00  -1.3300067e+00  -9.5343280e-01  -6.9124668e-01   1.6448665e-01   3.7488835e-01   3.7021260e-01   3.3720367e-01   2.5520470e-01   3.4057053e-01   4.2250325e-01   3.5718069e-01   4.3683117e-01   3.3827314e-01   3.8622346e-01   3.3744022e-01   2.6051248e-01   2.4175687e-01   1.6492376e-01   1.5703189e-01   1.7889716e-01   7.5161643e-02   7.5227013e-02   7.8611947e-02  -5.4344542e-02  -3.7774162e-02  -1.1627327e-01  -7.0748611e-02  -1.2683424e-01  -1.7607262e-01  -1.1033810e-01  -1.5230587e-01  -1.6157172e-01  -8.2177232e-02  -5.7941984e-02  -5.1874073e-03   7.1836518e-02   1.0453904e-01   1.7174799e-01   2.0238599e-01   3.7924561e-01   3.8148726e-01   5.3263876e-01   5.4070320e-01   4.1404175e-01   3.8267011e-01   4.6074247e-01   4.1178584e-01   5.1448860e-01   4.8576342e-01   4.7942993e-01   4.3166198e-01   4.4923688e-01   4.3060457e-01   3.4354830e-01   3.9963191e-01   4.1274853e-01   3.1801453e-01   4.2145266e-01   4.4756695e-01   3.7637909e-01   4.9741538e-01   5.3421419e-01   4.8876343e-01   5.1513378e-01   5.2599954e-01   5.7060937e-01   7.2109415e-01   6.3924947e-01   6.5977301e-01   6.9443983e-01   5.9952478e-01   6.1156174e-01   6.7432497e-01   5.9404017e-01   4.3912563e-01   5.2349025e-01   5.6566185e-01   5.1969463e-01   5.4284967e-01   4.1107203e-01   3.2352409e-01   3.3309621e-01   1.9989209e-01   9.9720084e-02   1.9195358e-01   1.5628219e-01   2.1497972e-01   3.1864938e-01   3.6548460e-01   5.3914070e-01   6.4861030e-01   8.2789704e-01   9.6626773e-01   1.1044572e+00   1.5766498e+00   1.6868895e+00   1.8529997e+00   1.7057632e+00   1.5121420e+00   1.4041431e+00   1.3135625e+00   8.4129332e-01   5.8155465e-01   2.2262026e-01  -1.8898164e-01  -5.8254742e-01  -8.2248026e-01  -9.0340750e-01  -1.0577932e+00  -1.0614733e+00  -1.0958368e+00  -1.1218444e+00  -1.2006327e+00  -1.2026657e+00  -1.1672060e+00  -1.2383158e+00  -1.1548863e+00  -1.2290445e+00  -1.2001916e+00  -1.2896743e+00  -1.1624115e+00  -1.1462862e+00  -9.4950971e-01  -3.7100255e-01   6.5024280e-02   6.1206980e-02   2.0545349e-01   3.6893997e-01   3.8509982e-01  -2.6999040e-02  -3.0200543e-01  -9.0659764e-02   4.0027713e-01  -1.2659797e+00
   4.0000000e+00  -5.2498116e-01  -1.2547967e+00  -1.3454909e+00  -1.6171852e+00  -1.6780264e+00  -1.6340402e+00  -1.6038981e+00  -1.5370588e+00  -1.3650570e+00  -9.7653788e-01  -5.9580492e-01  -3.0208021e-01  -1.4612345e-01  -1.7868750e-01  -1.0621570e-01   8.1623520e-02   2.4920634e-01   4.3875623e-01   5.0557600e-01   4.7071601e-01   4.4687124e-01   4.2460213e-01   4.6711646e-01   4.7301305e-01   4.7981539e-01   6.1666361e-01   6.2410800e-01   5.2217971e-01   5.4570369e-01   5.4278470e-01   4.5301517e-01   4.3581609e-01   4.4687124e-01   4.2809126e-01   4.6259871e-01   5.0360886e-01   4.7981539e-01   4.6422667e-01   4.6163738e-01   4.3492409e-01   3.6451087e-01   2.9899401e-01   3.3667090e-01   3.9377940e-01   3.9745502e-01   4.2578058e-01   4.0062620e-01   2.7402058e-01   2.6567842e-01   3.9238453e-01   4.0344754e-01   3.5913306e-01   3.9745502e-01   4.1947635e-01   4.0072688e-01   3.7168670e-01   3.6451087e-01   4.0764066e-01   4.0036552e-01   3.5171342e-01   3.3156672e-01   2.9782552e-01   2.6512927e-01   2.7050488e-01   2.6567842e-01   2.4101432e-01   2.1857424e-01   1.9657305e-01   2.4920634e-01   3.6193108e-01   3.8313423e-01   3.6009268e-01   3.3156672e-01   2.6882522e-01   3.1688158e-01   4.2648410e-01   4.3039917e-01   4.5249960e-01   5.3618200e-01   5.3241677e-01   4.7981539e-01   5.1135672e-01   5.4014063e-01   4.6574777e-01   4.1392709e-01   4.5079154e-01   4.8411422e-01   5.3773762e-01   6.1159199e-01   6.2067084e-01   5.9666020e-01   5.6654897e-01   5.1275954e-01   4.8323621e-01   4.7854979e-01   4.8728427e-01   5.2923161e-01   5.2363974e-01   4.3552226e-01   4.2742072e-01   4.7981539e-01   4.4769110e-01   4.2485335e-01   4.6037794e-01   4.7981539e-01   4.8440966e-01   4.6946605e-01   5.0438192e-01   6.1159199e-01   6.2402359e-01   5.3557645e-01   5.1927675e-01   5.1275954e-01   3.6320761e-01   2.2019643e-01   2.6400912e-01   3.3156672e-01   3.7715821e-01   5.1284114e-01   5.2044069e-01   3.3156672e-01   1.8433345e-01   1.4286829e-02  -1.4250423e-01  -4.7290999e-02   9.4436430e-02  -9.0154346e-03  -2.1566704e-01  -4.7556494e-01  -9.0092292e-01  -1.3896530e+00  -1.8725320e+00  -2.6992950e+00  -3.6818075e+00  -4.2516913e+00  -4.5488108e+00  -4.0170610e+00  -2.9708810e+00  -2.5508089e+00  -9.0722280e-01
   1.0000000e+00  -4.8248716e-01  -2.9535024e+00  -3.8792293e+00  -4.2629990e+00  -3.6726815e+00  -2.6683421e+00  -1.8593808e+00  -1.5619651e+00  -9.3792505e-01  -5.3344996e-01  -6.1052612e-01  -5.7934506e-01  -5.4134754e-01  -4.7764706e-01  -4.8912377e-01  -5.7150450e-01  -5.1723883e-01  -5.8095517e-01  -5.9936534e-01  -5.8016661e-01  -5.8850016e-01  -6.2212184e-01  -6.1740535e-01  -5.5869294e-01  -6.2811797e-01  -7.3472019e-01  -7.6026894e-01  -7.9906448e-01  -8.6574743e-01  -9.0426493e-01  -9.0023196e-01  -1.0219194e+00  -9.5404475e-01  -1.0279538e+00  -1.0378981e+00  -1.0253520e+00  -9.7769402e-01  -1.0690647e+00  -9.7569616e-01  -9.3775330e-01  -8.7170275e-01  -7.9066133e-01  -7.1609679e-01  -5.9416249e-01  -5.0707686e-01  -3.2186405e-01  -2.8692753e-01  -2.6541494e-01  -1.8406397e-01  -5.8916913e-02  -9.2826200e-02  -4.1606621e-02  -1.2013487e-02  -7.0096484e-02  -4.0697967e-03   1.6841615e-02   1.8987367e-02   1.2664670e-01   9.0935863e-02   8.7307201e-02   1.6359358e-01   1.3295664e-01   1.1813754e-01   1.6835773e-01   2.2068065e-01   2.5953813e-01   2.5095577e-01   2.9463502e-01   4.4670347e-01   5.0570982e-01   5.6531676e-01   5.8559614e-01   6.3124727e-01   6.0284825e-01   6.8231951e-01   6.5873494e-01   6.4729758e-01   7.0863839e-01   6.5372123e-01   5.5972360e-01   5.7185477e-01   6.0643831e-01   5.8333487e-01   5.0580242e-01   6.0063284e-01   6.1379915e-01   6.0945714e-01   5.8824205e-01   5.3075057e-01   4.9445157e-01   4.1881171e-01   4.4552340e-01   5.2968270e-01   4.9489531e-01   5.1371334e-01   5.2353886e-01   5.3866238e-01   6.1001601e-01   6.3653471e-01   8.9743371e-01   1.1839907e+00   1.2860561e+00   1.4054408e+00   1.5816686e+00   1.6834778e+00   1.7901000e+00   1.6755588e+00   1.6423153e+00   1.4067057e+00   1.2550615e+00   1.1080099e+00   8.0798354e-01   5.9706854e-01   3.1862563e-01   3.8594621e-02   7.0498820e-02   5.9278193e-02   5.1876903e-02   8.7985130e-02   1.3258523e-01   1.0070772e-01   5.0781129e-02   1.2379410e-01   3.4382062e-02   1.5011553e-01   7.5108860e-02   9.4884857e-02   7.7222356e-02   1.9435412e-01   3.6321300e-01   9.0347351e-01   1.4255596e+00   1.3213136e+00   1.1574372e+00   1.1578084e+00   1.0340461e+00   1.0273615e+00   7.5124309e-01   1.2463047e+00   2.0019502e-01
   2.0000000e+00  -1.1187105e+00  -2.3026215e+00  -2.6506434e+00  -2.9330545e+00  -2.7814313e+00  -2.8151099e+00  -2.6303002e+00  -2.2410309e+00  -1.6940961e+00  -1.1019239e+00  -8.1884484e-01  -7.0009620e-01  -5.7062039e-01  -3.5964637e-01   3.5176344e-02   2.9113236e-01   3.3794533e-01   3.4725084e-01   3.8187492e-01   3.6560974e-01   3.7087625e-01   3.9930779e-01   3.7784632e-01   3.9633999e-01   4.1209680e-01   4.2821242e-01   3.4186183e-01   3.4289493e-01   3.9789085e-01   3.5807569e-01   4.1639705e-01   3.8840390e-01   3.9870192e-01   4.2284293e-01   3.8281363e-01   3.4406113e-01   3.1967235e-01   3.7675690e-01   3.9609111e-01   4.2126250e-01   3.8631531e-01   3.5235854e-01   3.5315827e-01   3.0968896e-01   2.9597232e-01   3.1253414e-01   3.3063602e-01   2.5765960e-01   2.4440160e-01   2.3908019e-01   1.5980992e-01   1.7729425e-01   1.9469818e-01   1.6262518e-01   1.3358838e-01   1.2536566e-01   6.0534624e-02   9.8872504e-02   9.2850759e-02  -9.2755223e-02  -5.1613862e-02  -6.3339659e-03  -6.1501498e-02   2.0568333e-02   1.0369636e-02   2.9854304e-02   1.1121212e-01   5.2041944e-02   8.9248575e-02   3.7273982e-02   3.5353003e-02   1.1090614e-01   1.2439480e-01   2.2397886e-01   2.5497724e-01   2.4464138e-01   1.9090915e-01   2.6290634e-01   3.8210509e-01   4.0178420e-01   3.9579325e-01   3.9881183e-01   4.9023933e-01   5.2210162e-01   5.3391001e-01   5.4870817e-01   5.7839633e-01   5.7640707e-01   5.8858331e-01   6.6679474e-01   5.6597715e-01   5.6287353e-01   6.3079901e-01   5.7896982e-01   6.0434827e-01   7.2089594e-01   7.6841441e-01   7.2667459e-01   7.5045541e-01   7.0856433e-01   6.9733213e-01   7.2809786e-01   7.0751620e-01   7.6902669e-01   7.7437080e-01   7.3116971e-01   7.2612911e-01   7.3771625e-01   7.9762481e-01   8.5902025e-01   8.4747396e-01   8.6571299e-01   8.8657660e-01   8.1792980e-01   8.8823677e-01   8.2791558e-01   6.8091653e-01   6.3144028e-01   5.0196979e-01   5.4787746e-01   5.6861411e-01   4.8064729e-01   3.4626342e-01   2.6600179e-01   2.1091986e-01   2.3412598e-02   3.2981041e-02   2.1740932e-01   2.7445809e-01   8.2241861e-02  -1.4558324e-01  -6.0236986e-01  -1.3301879e+00  -1.9978899e+00  -2.8131662e+00  -3.5563443e+00  -3.9007127e+00  -3.0949677e+00  -2.4516631e+00  -9.4286689e-01
   2.0000000e+00  -5.0399815e-01  -1.8460508e+00  -2.9498251e+00  -3.8710214e+00  -3.9266693e+00  -3.7422619e+00  -3.2254424e+00  -2.6093034e+00  -1.7678351e+00  -1.1867796e+00  -9.7257550e-01  -9.3330902e-01  -5.2903767e-01  -3.5270619e-02   1.8727117e-01   1.1898783e-01   1.7227791e-02   9.1573935e-02   3.9140158e-02   1.3928902e-01   2.1064422e-01   1.5771922e-01   1.3634535e-01   1.5580297e-01   1.1653732e-01   3.8068725e-02   1.4510584e-01   1.3164482e-01  -2.7266967e-02   9.3704649e-03   5.3859959e-02   3.9921096e-02   7.1906320e-02  -1.7408572e-02  -2.6501769e-02   6.3509539e-02  -4.5648318e-02  -1.3573585e-01  -1.3268339e-01  -8.8666656e-02  -1.9024753e-01  -3.1844108e-01  -2.8667561e-01  -2.6939233e-01  -2.6986558e-01  -3.6082151e-01  -3.9651623e-01  -4.1630365e-01  -4.2175651e-01  -4.3382029e-01  -4.0536801e-01  -4.1804435e-01  -5.3165216e-01  -4.5882674e-01  -4.0164509e-01  -3.9435649e-01  -4.1291252e-01  -3.4516292e-01  -2.9001528e-01  -2.7626977e-01  -1.1501354e-01  -6.6455847e-02  -9.3953493e-02  -1.1942731e-02   1.0252937e-01   1.9258047e-01   1.9029096e-01   3.2030180e-01   4.2742792e-01   3.7459067e-01   4.7624241e-01   4.8458467e-01   4.6481472e-01   5.3014762e-01   5.7495897e-01   5.1840323e-01   5.3214265e-01   6.5414024e-01   6.8338032e-01   6.5875191e-01   6.2604006e-01   6.8144289e-01   6.6891695e-01   7.2778377e-01   6.3943600e-01   6.1398494e-01   7.3915873e-01   6.5484074e-01   7.2959188e-01   7.1819376e-01   7.2536323e-01   7.0974192e-01   6.9373973e-01   7.5148157e-01   7.2526895e-01   7.0760041e-01   7.0872228e-01   6.4720899e-01   4.8324321e-01   6.2170031e-01   8.9517857e-01   9.7106016e-01   1.1042049e+00   1.0917481e+00   9.9452108e-01   1.0953417e+00   1.0347852e+00   1.0168661e+00   1.0776579e+00   8.6445474e-01   7.2784354e-01   6.7174911e-01   3.4753156e-01  -3.5423572e-01  -1.1557048e+00  -1.4641321e+00  -1.6507001e+00  -1.9072699e+00  -1.7095393e+00  -1.1133205e+00  -5.0397303e-01  -1.9537322e-01  -2.5058114e-01  -9.4090653e-02   4.7867387e-01   7.5463115e-01   5.5243968e-01   5.2166338e-01   4.0818766e-01   4.0809426e-02  -1.9799363e-01  -3.2313167e-01  -2.4333868e-02   8.0465892e-01   1.6824281e+00   2.0167062e+00   1.6175601e+00   1.3320782e+00   1.0316203e+00   1.2860567e+00
   1.0000000e+00  -1.4512558e+00  -3.0560388e+00  -4.2794448e+00  -4.3794364e+00  -3.5910384e+00  -2.5779387e+00  -1.8814676e+00  -1.7517458e+00  -1.1633022e+00  -7.3182337e-01  -6.2518752e-01  -6.7292659e-01  -6.1968339e-01  -5.8294360e-01  -5.9122047e-01  -5.8044366e-01  -5.2938558e-01  -5.4447946e-01  -6.2144891e-01  -6.0106740e-01  -5.9848595e-01  -6.0574314e-01  -6.8503707e-01  -6.3388697e-01  -6.3839156e-01  -7.0984278e-01  -6.6594793e-01  -6.8385064e-01  -7.8901916e-01  -7.3399475e-01  -8.3306922e-01  -8.0993727e-01  -8.6131687e-01  -8.6102753e-01  -8.4123309e-01  -9.0452498e-01  -8.4104174e-01  -8.2697909e-01  -7.1430074e-01  -7.0483759e-01  -6.2036696e-01  -5.9296591e-01  -4.5853918e-01  -3.6900527e-01  -2.5940488e-01  -1.9675660e-01  -1.4103105e-01  -9.0570121e-02  -3.6791494e-02   7.4877375e-02   6.8390402e-02   4.0486529e-02   7.5627601e-02   5.7471932e-02   8.3442976e-02   5.7143237e-02   1.1169643e-01   1.2992194e-01   9.5089306e-02   1.9963580e-01   1.4997462e-01   1.2867767e-01   1.9221041e-01   1.8398625e-01   2.4522243e-01   3.1242596e-01   3.5612416e-01   3.9234365e-01   3.8993405e-01   5.0122441e-01   4.3000037e-01   4.8841321e-01   5.5609003e-01   5.2497962e-01   5.8968539e-01   5.4085980e-01   5.9377031e-01   5.4239650e-01   5.8758903e-01   6.4407102e-01   5.6279664e-01   5.3916880e-01   5.4980497e-01   4.6905930e-01   4.8633348e-01   4.6778096e-01   5.2284382e-01   4.8384054e-01   4.0488496e-01   5.0356052e-01   4.6401313e-01   5.1766901e-01   4.1622018e-01   4.1226490e-01   4.4318462e-01   4.9381702e-01   6.2793377e-01   8.6551845e-01   9.3735154e-01   1.0066126e+00   1.1111624e+00   1.2628893e+00   1.5411641e+00   1.6381920e+00   1.5501890e+00   1.5148746e+00   1.4707039e+00   1.2386903e+00   1.1597791e+00   9.7990316e-01   7.7399281e-01   5.4734810e-01   2.3460372e-01   7.5767075e-02   7.6534144e-02  -2.6984301e-02  -3.4326511e-02  -9.6331016e-03   2.2024128e-02   1.6426447e-02  -3.5370887e-03   1.5143745e-02   1.1056811e-02   3.2899897e-02   4.5602279e-02   5.8607182e-02   2.5603772e-02   2.6898822e-02   1.9081290e-01   5.2404777e-01   1.0295824e+00   1.1278791e+00   1.1544391e+00   1.4874769e+00   1.6516523e+00   1.4961808e+00   1.2189307e+00   9.8787288e-01   1.1841130e+00   6.1319254e-01
   1.0000000e+00   3.0623033e-01  -3.2874998e+00  -4.4309468e+00  -4.7097928e+00  -3.9564142e+00  -2.6172114e+00  -1.9062326e+00  -1.5635757e+00  -5.3896825e-01  -9.5875510e-02  -1.2115259e-01  -1.0292218e-03  -2.0363953e-02   1.6126609e-02  -2.2006069e-02  -1.1401134e-02  -8.0374238e-02  -1.5340858e-01  -6.4023148e-02  -2.1019847e-01  -1.3739464e-01  -2.1146553e-01  -2.2761108e-01  -3.5848054e-01  -2.5452522e-01  -3.4040993e-01  -4.4143899e-01  -4.3950028e-01  -5.7203144e-01  -5.4603091e-01  -7.3014588e-01  -6.5217742e-01  -6.9310314e-01  -7.7995310e-01  -7.6370686e-01  -8.2147199e-01  -7.1830556e-01  -7.0823894e-01  -6.3161714e-01  -5.9159089e-01  -4.3832823e-01  -4.1175818e-01  -2.8004021e-01  -2.6344978e-01  -1.5355388e-01   5.8076843e-02   5.9055318e-02   4.7058454e-02   1.1172034e-01   1.3259713e-01   6.5930506e-02   2.1499429e-01   1.7541340e-01   2.5178960e-01   2.4716959e-01   2.9738791e-01   2.2020667e-01   2.7666447e-01   3.0311351e-01   2.4847054e-01   3.2787224e-01   3.8666611e-01   4.5079059e-01   4.0192310e-01   4.9624244e-01   5.9254265e-01   5.9326588e-01   5.7983371e-01   6.0972040e-01   6.7171700e-01   6.7553472e-01   7.9237036e-01   7.3974084e-01   7.5874056e-01   5.8140597e-01   7.2460792e-01   7.0716272e-01   5.8392802e-01   5.6765122e-01   5.6075168e-01   6.0525917e-01   3.9343000e-01   5.1991680e-01   3.9994542e-01   4.3646056e-01   3.4021179e-01   4.1799328e-01   2.8573839e-01   4.1690466e-01   3.7721696e-01   3.5522604e-01   3.2815725e-01   2.2881580e-01   3.1982431e-01   1.6697998e-01   2.3039238e-01   1.8728926e-01   2.9276653e-01   2.7825060e-01   6.1421457e-01   9.0950631e-01   1.2223610e+00   1.5326898e+00   1.6117852e+00   1.7981127e+00   2.0270709e+00   1.9281126e+00   1.8215591e+00   1.6672813e+00   1.4379274e+00   1.2473295e+00   7.7441727e-01   5.4180298e-01   6.4685858e-02  -4.6826743e-01  -5.0717005e-01  -4.5787993e-01  -5.3734085e-01  -6.3147859e-01  -5.2737903e-01  -6.0200761e-01  -5.5200336e-01  -6.0847422e-01  -5.9392575e-01  -6.5898541e-01  -6.2132870e-01  -6.5448190e-01  -4.8873321e-01  -4.7403987e-01  -3.6619607e-01   2.5857003e-01   9.7270798e-01   9.5746019e-01   8.3070282e-01   5.5409019e-01  -5.5340184e-02  -6.3530452e-02   1.9963750e-01   1.3580462e+00  -9.1995734e-01
   1.0000000e+00  -1.3645811e+00  -3.0520106e+00  -3.7526049e+00  -4.6366593e+00  -4.2114926e+00  -3.0513068e+00  -2.0531744e+00  -1.6340691e+00  -9.8904021e-01  -3.3590813e-01  -3.3304523e-01  -2.8402627e-01  -3.0737337e-01  -2.8483635e-01  -2.6924272e-01  -2.9413563e-01  -2.4008052e-01  -3.0963679e-01  -3.1574717e-01  -3.7076346e-01  -3.5833202e-01  -4.3277207e-01  -4.0418571e-01  -4.5724117e-01  -5.0839069e-01  -5.3021780e-01  -5.1825442e-01  -5.4869735e-01  -6.2480431e-01  -7.0490837e-01  -7.2727592e-01  -8.1176342e-01  -7.6726304e-01  -7.5299980e-01  -9.0092214e-01  -9.1095544e-01  -8.0532418e-01  -8.1289905e-01  -7.4583769e-01  -6.9620881e-01  -4.9835554e-01  -5.0408975e-01  -3.6222174e-01  -2.3211369e-01  -1.6725991e-01  -2.1705935e-01  -1.2543514e-01  -3.9949069e-02  -3.7894749e-03   4.3034355e-03   8.2286606e-03  -1.2271370e-02   6.1227672e-03  -6.8985284e-02   4.6402483e-02   6.2616448e-02  -2.6148465e-02   8.1071943e-02   4.3240694e-02   2.6427455e-02   3.6270975e-02   3.0842478e-02   1.8968166e-01   1.5765950e-01   2.7169542e-01   2.8445496e-01   3.7931122e-01   4.3489778e-01   4.3623874e-01   5.1986567e-01   5.9601168e-01   5.7878553e-01   7.0718978e-01   6.4616060e-01   6.9665402e-01   6.5894787e-01   6.6662442e-01   7.4903957e-01   6.7894872e-01   6.1748087e-01   5.8748589e-01   6.8040957e-01   6.2633345e-01   5.9270579e-01   5.5150066e-01   4.6902623e-01   5.3794232e-01   4.8304804e-01   4.4009816e-01   4.8517058e-01   4.2495804e-01   4.3747005e-01   4.2265632e-01   4.0110537e-01   3.5848082e-01   3.7964279e-01   4.2163350e-01   5.0280718e-01   6.0387975e-01   7.5937827e-01   9.2346637e-01   9.8278647e-01   1.1045462e+00   1.1412649e+00   1.4660725e+00   1.6706799e+00   1.5295944e+00   1.2751250e+00   8.7914926e-01   7.5659938e-01   6.1936705e-01   5.9330483e-01   4.9892145e-01   1.6272183e-01  -1.4827393e-01  -1.7762096e-01  -1.5617430e-01  -1.3675406e-01  -2.0542035e-01  -1.6465548e-01  -1.7913064e-01  -1.7073116e-01  -1.6955949e-01  -1.7301069e-01  -1.7792615e-01  -9.7891275e-02  -8.1904932e-02  -5.0988506e-02   1.9460882e-02   1.7268374e-01   7.8761311e-01   1.5022886e+00   1.4863691e+00   1.6479647e+00   2.2177902e+00   2.1315568e+00   1.3893745e+00   4.9913762e-01   4.7816658e-01  -2.6020475e-01
