   1.0000000e+00  -8.1167843e-01  -3.7551670e+00  -4.4826178e+00  -4.3504532e+00  -3.3474194e+00  -2.3078214e+00  -1.6410859e+00  -1.4744543e+00  -7.7862427e-01  -5.3344489e-01  -5.3064950e-01  -5.3759914e-01  -4.8032690e-01  -4.3733349e-01  -4.9861915e-01  -4.7397647e-01  -5.3555637e-01  -5.0521283e-01  -5.1443125e-01  -5.8434248e-01  -6.1579836e-01  -6.1324567e-01  -6.2896133e-01  -7.0806263e-01  -7.0419831e-01  -6.8684389e-01  -7.7075212e-01  -6.7480087e-01  -7.8987092e-01  -8.6032569e-01  -7.8277554e-01  -8.1813579e-01  -8.0282714e-01  -8.8231621e-01  -8.5557359e-01  -8.2077473e-01  -8.3747679e-01  -7.3796545e-01  -7.2762352e-01  -7.5055726e-01  -6.2659118e-01  -5.2213011e-01  -4.1375355e-01  -3.8670101e-01  -2.6740268e-01  -2.2177832e-01  -1.4653624e-01  -1.1636629e-01  -1.5032056e-01  -4.4277456e-02  -7.4654484e-02  -2.2644532e-02  -1.8818591e-02   2.7657845e-02   7.2986106e-02   1.4604075e-02   7.7601847e-02   6.3796325e-02   1.0075120e-01   1.1047998e-01   1.2184012e-01   1.2207508e-01   1.7888764e-01   1.8538232e-01   1.8919759e-01   2.1514388e-01   2.2760517e-01   2.6991838e-01   4.3557266e-01   4.2242988e-01   3.6372242e-01   4.4872226e-01   5.2565767e-01   4.9613247e-01   5.3746483e-01   5.4850022e-01   5.3627054e-01   5.1844757e-01   5.1438938e-01   4.4625043e-01   4.5036186e-01   5.2545738e-01   4.6814501e-01   4.4486815e-01   4.3060451e-01   3.7435855e-01   4.8430112e-01   4.0263462e-01   4.5342511e-01   4.0419215e-01   3.9569335e-01   4.1366820e-01   3.9761144e-01   4.5914409e-01   5.1727889e-01   7.1044970e-01   8.2578611e-01   9.8604442e-01   1.1447389e+00   1.1945771e+00   1.4040651e+00   1.5725958e+00   1.6862582e+00   1.6831312e+00   1.6193429e+00   1.4988971e+00   1.3849962e+00   1.2385975e+00   1.0610559e+00   8.7638279e-01   5.3248300e-01   2.7971290e-01   1.3030283e-01   8.5560120e-02   6.7295888e-02  -5.7054023e-02  -1.8913736e-02   3.4783758e-03   3.1534277e-02   2.5374918e-02   4.5516323e-02   8.1935173e-02   4.5096999e-02   9.3981592e-02  -3.8313869e-02   3.6861846e-02   3.7941775e-02   1.4842037e-01   4.6032979e-01   8.9533868e-01   1.0938625e+00   1.0434202e+00   1.1006564e+00   1.1132768e+00   1.1366276e+00   1.0609042e+00   1.2525531e+00   1.6558090e+00   1.7111544e+00  -6.7362383e-01
   1.0000000e+00  -2.0979911e+00  -4.3562231e+00  -4.6071446e+00  -3.9276857e+00  -2.4774980e+00  -1.7293570e+00  -1.2945280e+00  -3.0931701e-01  -7.2851351e-03   5.6125157e-02  -1.9234138e-02  -3.0868187e-02   5.2253151e-02   8.1674954e-02   1.3331272e-01   1.9769834e-02  -6.9601846e-02  -4.4868279e-03  -5.4971395e-02  -1.3625033e-01  -6.5487960e-02  -1.1044467e-01  -1.5073209e-01  -2.0488576e-01  -2.1904404e-01  -3.0772142e-01  -3.5702448e-01  -4.0010324e-01  -5.0514006e-01  -5.5981599e-01  -7.2417899e-01  -7.3871340e-01  -8.6889647e-01  -8.5750173e-01  -8.8052959e-01  -8.9075072e-01  -8.8740144e-01  -8.8731222e-01  -9.0425800e-01  -7.3534552e-01  -6.5692159e-01  -5.6962305e-01  -4.7590494e-01  -2.8301189e-01  -1.9624336e-01  -1.5524582e-01   7.2185418e-02   1.2701326e-02   1.0224891e-01   1.0069988e-01   2.5514362e-01   2.7759058e-01   2.7229686e-01   4.3175168e-01   4.6443773e-01   3.9222049e-01   4.0100766e-01   4.3046954e-01   3.0500803e-01   4.0692580e-01   4.2900059e-01   5.1712624e-01   5.5845177e-01   6.2340112e-01   6.0596263e-01   7.7085034e-01   8.6422600e-01   8.3289016e-01   8.5000547e-01   9.4714544e-01   1.0555196e+00   9.7713206e-01   9.9474762e-01   1.0064593e+00   9.5522108e-01   1.0037750e+00   9.4454121e-01   9.1315081e-01   8.5469692e-01   8.4116140e-01   8.2553317e-01   7.5484945e-01   7.6689079e-01   6.0169007e-01   5.7669617e-01   4.9134589e-01   5.5921645e-01   4.5487348e-01   4.3479745e-01   4.8277205e-01   3.8259411e-01   2.4169603e-01   2.1375409e-01   2.1054892e-01   2.1892287e-01   2.6708453e-01   4.0625337e-01   5.3841019e-01   7.5064886e-01   9.8543750e-01   1.1302481e+00   1.4135966e+00   1.6161009e+00   1.8287054e+00   1.6264846e+00   1.5432807e+00   1.3995886e+00   1.0788870e+00   9.1654745e-01   4.9323774e-01   1.5839607e-01  -2.1642488e-01  -5.3395246e-01  -6.9503939e-01  -8.7114219e-01  -8.6565681e-01  -8.7897290e-01  -8.7356632e-01  -8.6918858e-01  -9.2681383e-01  -8.6104685e-01  -9.8671480e-01  -9.6307232e-01  -9.6590928e-01  -9.4917170e-01  -8.5966182e-01  -9.0710407e-01  -8.3889073e-01  -4.3288812e-01   1.6372734e-01   5.3258601e-01   2.8261139e-01   5.0611650e-01   7.2275009e-01   7.7917958e-01   5.2716364e-01   7.1549807e-01   1.1140174e+00   8.7645546e-01  -1.1925843e+00
   1.0000000e+00  -8.1177880e-01  -2.8496296e+00  -4.1519891e+00  -4.6544898e+00  -3.9642236e+00  -2.9556423e+00  -1.8321418e+00  -1.4918342e+00  -1.1501055e+00  -3.2765040e-01  -2.7377754e-01  -3.0548541e-01  -2.9620863e-01  -2.5461360e-01  -2.6391073e-01  -3.9202988e-01  -3.2631057e-01  -1.9681182e-01  -2.8685848e-01  -3.1771316e-01  -3.4146836e-01  -4.1369908e-01  -3.5369924e-01  -3.3098784e-01  -3.8005411e-01  -3.8808154e-01  -4.4869327e-01  -4.2276647e-01  -5.2244433e-01  -4.6784237e-01  -6.0220935e-01  -6.6257579e-01  -6.5197155e-01  -7.5467771e-01  -7.7918023e-01  -7.5143921e-01  -7.7497521e-01  -6.8352070e-01  -6.4974360e-01  -6.4929639e-01  -5.8348535e-01  -5.6693140e-01  -5.2846830e-01  -3.8280795e-01  -2.5747424e-01  -2.9385522e-01  -1.6717058e-01  -7.3357418e-02  -1.5019974e-02   3.0126757e-02  -6.0549706e-02  -7.8019474e-02  -2.4892305e-02  -9.6773850e-03   3.0731297e-02   1.8245425e-02   1.1347110e-01   1.1515860e-01   1.5639317e-02   8.3225021e-02   1.3508034e-01   1.5351553e-01   1.8849898e-01   1.2639267e-01   1.7898656e-01   2.7557278e-01   3.6070038e-01   3.9647568e-01   3.7974920e-01   4.6562766e-01   4.7172501e-01   6.5164710e-01   5.9484521e-01   6.7350373e-01   7.6851295e-01   7.2814132e-01   7.1075785e-01   8.0311408e-01   6.6671492e-01   6.5563527e-01   7.0526604e-01   6.8973865e-01   6.9872796e-01   6.0973415e-01   6.2439067e-01   5.6292654e-01   6.1388629e-01   5.1397519e-01   4.1899852e-01   4.6668815e-01   4.0104448e-01   4.7604407e-01   4.2111771e-01   3.5307320e-01   5.3803010e-01   5.6568313e-01   7.3300883e-01   9.4880484e-01   1.0052589e+00   1.1561635e+00   1.4684710e+00   1.6743198e+00   1.8633948e+00   1.8738646e+00   1.8678863e+00   1.7777751e+00   1.5711321e+00   1.3103600e+00   1.0121038e+00   7.9911851e-01   4.7431215e-01   1.1823553e-01  -1.2840384e-01  -3.3046104e-01  -3.4788798e-01  -3.2677132e-01  -3.0714934e-01  -3.3418296e-01  -4.6543225e-01  -4.2592346e-01  -3.8824019e-01  -3.8106830e-01  -3.6838141e-01  -3.7423731e-01  -4.0310654e-01  -3.0884406e-01  -3.5137252e-01  -2.1998997e-01  -1.5662559e-02   5.4601556e-01   9.3909492e-01   8.8776049e-01   1.1917450e+00   1.4320326e+00   1.2538363e+00   8.5226556e-01   7.9977345e-01   8.3293190e-01   6.9795971e-01  -8.8738890e-01
   1.0000000e+00  -1.4248507e-01  -1.8330969e+00  -3.0935351e+00  -3.9551021e+00  -4.3176347e+00  -4.1082980e+00  -3.4463508e+00  -2.3726684e+00  -1.5485319e+00  -1.2821382e+00  -8.0894120e-01  -3.4672802e-01  -3.4247237e-01  -2.8276266e-01  -3.2941615e-01  -3.0891368e-01  -2.9188878e-01  -2.0792598e-01  -2.6252938e-01  -3.5417360e-01  -3.1397639e-01  -3.7885886e-01  -2.5487678e-01  -2.9325079e-01  -3.3368172e-01  -2.6507813e-01  -3.4753140e-01  -3.3502655e-01  -4.0098190e-01  -4.2309873e-01  -3.8846988e-01  -4.5875251e-01  -5.5573064e-01  -4.5505944e-01  -4.5735349e-01  -5.0517798e-01  -5.3078441e-01  -5.2966979e-01  -5.0332838e-01  -3.8804646e-01  -4.0231628e-01  -3.8080911e-01  -3.7998613e-01  -3.1824642e-01  -2.9595062e-01  -2.1719701e-01  -4.9993394e-02   2.8655577e-02  -4.0698258e-02   1.1885237e-01   7.8786011e-02   6.9867741e-03   5.6936409e-02  -6.8804006e-02   2.0659553e-02  -4.8715345e-02   4.1118494e-02   3.1427139e-02   2.0788857e-02   3.0181129e-02   4.1773232e-02  -1.8176867e-02   2.8756236e-02  -1.5636339e-02  -5.8141024e-02   3.7437228e-03   5.1304866e-02   1.4257960e-01   2.7199168e-02   1.6366904e-01   1.9053274e-01   2.3803843e-01   3.4424106e-01   3.8019151e-01   4.2926578e-01   4.8045845e-01   4.8075732e-01   5.2777951e-01   3.8382562e-01   5.2624756e-01   5.1412830e-01   5.3425204e-01   4.3173866e-01   4.3922196e-01   4.8255363e-01   4.0528529e-01   4.6239423e-01   4.2515072e-01   3.5859445e-01   3.7146893e-01   3.3892199e-01   2.8102105e-01   4.5854012e-01   5.1342776e-01   6.2999256e-01   8.2985217e-01   9.8794495e-01   1.1251240e+00   1.2277812e+00   1.4206530e+00   1.5952241e+00   1.8161862e+00   1.9905225e+00   1.8103135e+00   1.7759795e+00   1.6338552e+00   1.4181262e+00   1.3226140e+00   1.0489950e+00   8.4515278e-01   5.0884304e-01   1.4119459e-01   6.1333320e-03  -1.1174031e-01  -3.9874186e-02  -1.1025012e-01  -1.7412595e-01  -1.2496000e-01  -1.1659538e-01  -1.3716280e-01  -1.7464688e-01  -1.9701591e-01  -7.0732736e-02  -5.3667468e-02  -1.7884245e-01  -1.2398012e-01  -8.3701402e-02   1.4897165e-02   4.3556346e-01   1.0978923e+00   1.3395231e+00   1.2787760e+00   1.4002473e+00   1.2064597e+00   9.1989113e-01   5.9659409e-01   4.5678706e-01   6.1391366e-01   4.4018484e-01  -1.0803791e+00
   1.0000000e+00   1.4291000e+00  -8.8324741e-01  -3.2207935e+00  -4.3152179e+00  -4.2848673e+00  -3.7204146e+00  -2.7214771e+00  -1.6913125e+00  -1.4588664e+00  -9.2605045e-01  -2.5858548e-01  -2.0916371e-01  -1.8490880e-01  -2.1129963e-01  -2.1867113e-01  -2.6521561e-01  -1.9265468e-01  -1.6738086e-01  -2.5551462e-01  -2.5120527e-01  -2.5125676e-01  -2.9631131e-01  -2.3526766e-01  -2.9443472e-01  -2.9741800e-01  -3.9181910e-01  -4.3706030e-01  -4.2887097e-01  -5.0049231e-01  -5.1238231e-01  -6.1524545e-01  -5.7561558e-01  -7.4633451e-01  -7.1208510e-01  -8.5271994e-01  -8.5127926e-01  -7.7464269e-01  -7.7882686e-01  -8.0624489e-01  -7.5382652e-01  -6.9451727e-01  -6.1822541e-01  -5.4778774e-01  -4.5486097e-01  -4.4632928e-01  -2.6598971e-01  -2.0781079e-01  -1.4801532e-01  -5.3452308e-02  -9.1789608e-03   3.0577700e-02   9.1961683e-02   8.0290660e-02   8.1795111e-02   9.2569132e-02   1.2827342e-01   1.4347043e-01   1.8560556e-01   1.7938998e-01   9.6578147e-02   1.2313200e-01   2.6517870e-01   2.9200149e-01   2.0648140e-01   3.4066924e-01   3.4983402e-01   3.9432140e-01   4.2166328e-01   5.1287241e-01   5.4929067e-01   4.8204390e-01   5.5586030e-01   4.9843227e-01   4.7311097e-01   5.4623497e-01   5.9589381e-01   5.0239025e-01   5.7656076e-01   4.9260831e-01   4.9681554e-01   4.5820215e-01   3.7195866e-01   4.2321329e-01   4.4324415e-01   4.8467253e-01   3.8720424e-01   3.2997315e-01   3.4577934e-01   2.8196208e-01   2.9531816e-01   3.2463973e-01   3.9372457e-01   3.4646040e-01   3.2628449e-01   4.3722923e-01   5.8830979e-01   6.5859094e-01   8.0312874e-01   1.0700593e+00   1.2011545e+00   1.4525262e+00   1.7550516e+00   1.9760528e+00   1.8473461e+00   1.7580915e+00   1.6467541e+00   1.3152211e+00   1.0680939e+00   8.7866586e-01   7.2320979e-01   3.7293788e-01  -1.3089901e-01  -3.6025757e-01  -3.9899014e-01  -4.7413183e-01  -4.9258967e-01  -4.0058250e-01  -4.5069816e-01  -4.7035245e-01  -4.3495924e-01  -4.4879082e-01  -4.2532204e-01  -4.2172245e-01  -4.9965302e-01  -3.5279239e-01  -3.0066737e-01  -4.0564723e-01  -2.3982696e-01   1.1635053e-01   8.0299781e-01   1.0290404e+00   8.5376550e-01   1.1950617e+00   1.3457160e+00   1.3046654e+00   1.0479976e+00   1.2416733e+00   1.7666575e+00   1.3240934e+00  -1.3050550e+00
   1.0000000e+00  -9.7554633e-01  -2.8585281e+00  -4.1158402e+00  -4.4423158e+00  -3.5035985e+00  -2.2969862e+00  -1.6306052e+00  -1.3188119e+00  -4.1219366e-01  -3.4015015e-01  -3.4869112e-01  -2.2399994e-01  -2.8836621e-01  -3.0332376e-01  -1.2123061e-01  -3.7508472e-01  -3.0303922e-01  -2.9232691e-01  -4.5338879e-01  -3.5358206e-01  -4.0079342e-01  -2.9361108e-01  -3.2332670e-01  -3.7948176e-01  -5.2066465e-01  -5.3247666e-01  -4.6945532e-01  -3.2489855e-01  -5.4297368e-01  -9.3501868e-01  -7.6705419e-01  -6.9916533e-01  -9.2705257e-01  -8.9326788e-01  -8.7584805e-01  -9.3966304e-01  -1.0437663e+00  -9.7608179e-01  -1.0266224e+00  -9.7623551e-01  -8.4006506e-01  -7.0345798e-01  -6.9577293e-01  -4.5085325e-01  -4.6236512e-01  -5.2022961e-01  -3.0332731e-01  -1.5877275e-01  -6.2157975e-02  -4.1012544e-02   1.0976568e-01   1.8377774e-01   4.9816997e-03  -2.8877466e-02   4.0113705e-02   1.1315724e-01   1.0100752e-01   1.2935938e-01   2.7310107e-01   2.5522520e-01   2.0205792e-01   1.5071999e-01   2.2175847e-01   3.7793147e-01   4.0581312e-01   3.6881590e-01   2.9252469e-01   4.9596528e-01   2.9958982e-01   4.2820998e-01   5.4648485e-01   4.4165650e-01   6.0956684e-01   6.3466551e-01   6.3481606e-01   5.5931569e-01   6.5033440e-01   5.8900127e-01   5.7414524e-01   6.6220971e-01   6.2185406e-01   6.1826747e-01   7.2652791e-01   6.5716512e-01   5.4339459e-01   5.8437382e-01   5.8800395e-01   4.6282555e-01   4.7660955e-01   5.6709781e-01   3.9228911e-01   3.1756328e-01   3.6116158e-01   3.5786929e-01   5.2780884e-01   6.4146793e-01   8.0876501e-01   9.6423112e-01   1.0821849e+00   1.3374926e+00   1.7362848e+00   1.7500160e+00   2.0092554e+00   1.9201490e+00   1.9269049e+00   1.8953784e+00   1.7182744e+00   1.5461413e+00   1.1608280e+00   1.0358072e+00   5.5873266e-01   1.6032848e-01  -1.0413681e-02  -1.7179739e-01  -1.9367962e-01  -4.8894014e-02  -9.1455101e-02  -1.3070109e-01  -1.4458429e-01  -1.8125262e-01  -1.4086154e-01  -1.8951536e-01  -2.1583094e-01  -1.6762253e-01   1.0495608e-02  -9.4950356e-02  -6.4693463e-02   3.1180093e-01   8.6934293e-01   1.3226345e+00   1.0658189e+00   9.1553591e-01   5.9731058e-01   3.2195449e-01   4.3165581e-01   3.2497712e-01   5.5607019e-01   7.1342500e-01  -3.7151223e-01  -2.5624245e+00
   1.0000000e+00   8.7578462e-01  -1.2283953e+00  -3.4558187e+00  -4.8905992e+00  -4.7060046e+00  -3.5703123e+00  -2.3659456e+00  -1.4648322e+00  -1.2810650e+00  -3.8140150e-01   6.4262499e-02  -5.1872878e-02  -5.4455491e-02  -2.9958917e-03   4.1184978e-02  -7.1216719e-02  -6.5576582e-02  -2.6341800e-02  -3.7623703e-02  -9.1658108e-02  -1.4205818e-01  -2.6347764e-01  -2.5663653e-01  -2.7499911e-01  -1.7715910e-01  -2.6321842e-01  -4.3310202e-01  -4.5967468e-01  -4.9741316e-01  -5.7298827e-01  -7.2114124e-01  -6.8702585e-01  -7.4100621e-01  -8.7385255e-01  -8.3591531e-01  -8.9289433e-01  -9.1997658e-01  -8.5011829e-01  -8.2525656e-01  -7.6942871e-01  -7.3257366e-01  -6.1644901e-01  -5.4254034e-01  -3.7065770e-01  -3.5968414e-01  -2.2440883e-01  -1.4527087e-01  -4.9578840e-03   2.3558635e-04   3.0280597e-02  -3.7975899e-02   5.9085919e-02   9.7324903e-02   7.7825393e-02   9.0627163e-02   1.0876888e-02   7.0531966e-02   6.8490509e-03   5.1534198e-02   1.5363316e-01   1.7617565e-01   2.5070960e-01   1.9964644e-01   1.8194569e-01   3.4619422e-01   2.1235197e-01   3.6440563e-01   4.2373040e-01   4.6278145e-01   4.5698781e-01   4.2711912e-01   5.6307674e-01   6.6289206e-01   6.2611510e-01   5.9167398e-01   5.8707971e-01   6.3159282e-01   5.9440299e-01   5.1910880e-01   5.5068711e-01   6.1470471e-01   5.2072396e-01   4.7994928e-01   5.1240569e-01   5.1999480e-01   3.5718366e-01   3.1251570e-01   4.1376356e-01   3.6289308e-01   3.4002651e-01   3.4552797e-01   3.3188037e-01   3.0385361e-01   3.7821877e-01   3.5667682e-01   4.5362706e-01   7.3024459e-01   9.3973482e-01   1.0230803e+00   1.0984217e+00   1.2444930e+00   1.3591528e+00   1.5631916e+00   1.5554798e+00   1.4270265e+00   1.3587018e+00   1.0789658e+00   8.9562034e-01   7.7947404e-01   6.2911659e-01   4.7926233e-01   1.8543292e-01  -3.1131402e-01  -3.8755366e-01  -3.3867587e-01  -4.2345875e-01  -4.7721291e-01  -4.1205844e-01  -3.9196568e-01  -4.5424399e-01  -4.7722803e-01  -4.0410799e-01  -4.6973001e-01  -4.5306707e-01  -4.5491309e-01  -4.6213207e-01  -5.1847588e-01  -2.7673649e-01  -1.2641723e-01   4.7019322e-01   9.4341947e-01   9.2688789e-01   1.2250656e+00   1.7543116e+00   1.8039316e+00   1.5694518e+00   1.1531755e+00   1.2929495e+00   1.3193375e+00  -7.9151450e-01
   1.0000000e+00   9.1735736e-01  -1.2658237e+00  -3.2676625e+00  -4.2877658e+00  -5.1909356e+00  -4.2330204e+00  -2.5132575e+00  -1.8773309e+00  -1.3779222e+00  -4.3451896e-02   1.9114064e-01   9.3086858e-02   1.6940234e-01   1.6211081e-01   2.2574341e-01   1.4286795e-01   1.5196327e-01   1.6909295e-01  -8.7576470e-03  -2.7548932e-02  -1.0388189e-01  -2.3454581e-01  -1.1768983e-01  -2.1747255e-01  -1.9362608e-01  -3.1632183e-01  -4.4358598e-01  -5.0367813e-01  -4.2554090e-01  -5.9006935e-01  -5.6664975e-01  -5.8952969e-01  -6.3709750e-01  -8.9213987e-01  -8.3608969e-01  -8.9240997e-01  -8.5935036e-01  -8.5268424e-01  -8.1714351e-01  -7.2379295e-01  -8.1502333e-01  -6.6417936e-01  -5.5432809e-01  -5.4080691e-01  -5.0919409e-01  -3.1220030e-01  -1.8666473e-01  -2.3607708e-01  -6.9653182e-02  -1.7811265e-01   4.1697737e-02  -1.4635571e-01  -9.7459804e-02   2.2465394e-02  -1.6666167e-02  -8.1585289e-02  -1.0334797e-01  -4.6050283e-02   1.0978273e-01   1.1304252e-01   1.3457192e-03   8.9481503e-02   8.4821920e-02   1.8572223e-02   1.7164823e-01   2.5371724e-01   1.7749085e-01   3.7655920e-01   3.3831064e-01   4.1663252e-01   4.8995864e-01   5.2493801e-01   6.3398596e-01   5.4527330e-01   7.2145684e-01   6.4012444e-01   6.2307373e-01   6.5404857e-01   5.2712923e-01   6.1188668e-01   6.6214634e-01   6.1045410e-01   5.0937710e-01   5.0228496e-01   3.1796224e-01   3.5411269e-01   2.1996721e-01   4.3995213e-01   4.3270860e-01   4.0903427e-01   3.2109966e-01   3.2202362e-01   3.4760779e-01   2.5471100e-01   2.4693491e-01   2.8013400e-01   3.1066247e-01   2.0226932e-01   1.7470179e-01   2.5933488e-01   3.8609711e-01   3.3319001e-01   3.9398173e-01   6.0454155e-01   9.1729517e-01   9.6351998e-01   1.1940637e+00   1.5287295e+00   1.6800537e+00   1.3724923e+00   1.0526699e+00   7.8889972e-01   6.8471914e-01   8.0402170e-01   8.6503252e-01   5.4943937e-01  -8.4302029e-02  -3.1963820e-01  -2.5043042e-01  -2.3307132e-01  -3.4731071e-01  -3.6794797e-01  -2.9630534e-01  -4.1663597e-01  -4.6447081e-01  -2.0572794e-01  -4.2377016e-01  -2.5321616e-01  -2.3961767e-01  -1.4756276e-01  -9.4952071e-02   6.7148308e-01   1.3839413e+00   1.7108272e+00   1.8228936e+00   1.8353268e+00   1.8275191e+00   8.6835244e-01   6.5038973e-01   1.1322725e+00
   1.0000000e+00  -1.3620844e+00  -3.3050092e+00  -4.2868175e+00  -4.4100510e+00  -3.5068239e+00  -2.4396208e+00  -1.6291730e+00  -1.4471171e+00  -7.1178419e-01  -2.3940173e-01  -1.6600315e-01  -1.7829580e-01  -1.8450615e-01  -2.0756133e-01  -1.2183592e-01  -2.8518717e-01  -4.1043120e-01  -3.3768043e-01  -3.5580313e-01  -3.3580525e-01  -3.3725029e-01  -4.7472436e-01  -5.1714607e-01  -4.7626137e-01  -5.3038262e-01  -5.3487966e-01  -5.3197877e-01  -6.4172335e-01  -7.4380059e-01  -7.1303234e-01  -8.2516152e-01  -8.2105661e-01  -8.3029502e-01  -8.7843122e-01  -8.4638245e-01  -8.7897370e-01  -8.8878414e-01  -7.6553598e-01  -7.7602539e-01  -7.3217078e-01  -6.8363244e-01  -4.4761397e-01  -4.6301117e-01  -4.0189610e-01  -1.2854636e-01  -2.1299852e-01  -1.1914423e-01  -2.6403321e-02  -9.5688842e-02  -4.2840282e-02  -3.2740135e-02   4.4311362e-02   8.2677139e-02   6.5957254e-02   5.8580786e-02   3.9774045e-02   1.1674893e-01  -5.9332348e-02  -4.2664802e-02   7.4556159e-02   9.1955557e-02   9.3183222e-02   6.4848849e-02   7.5304506e-02   4.6032499e-02   2.0413661e-01   2.9509196e-01   4.2349710e-01   3.6618349e-01   4.4573541e-01   5.2347960e-01   5.2669070e-01   4.9563088e-01   4.5449762e-01   5.4737362e-01   6.1914989e-01   5.5811363e-01   6.2454877e-01   6.9975725e-01   6.5544481e-01   5.5292414e-01   5.5165426e-01   6.0366799e-01   5.3080025e-01   5.2637109e-01   5.1685981e-01   5.0220230e-01   4.4150143e-01   3.8037357e-01   4.0546902e-01   4.6542108e-01   3.4664617e-01   4.6561318e-01   4.6010914e-01   4.9725156e-01   6.4955239e-01   7.3329088e-01   8.5455140e-01   1.0896602e+00   1.2933226e+00   1.4692779e+00   1.6847367e+00   1.9750687e+00   1.9073603e+00   1.7781739e+00   1.7354770e+00   1.6333837e+00   1.3338839e+00   1.0290037e+00   8.6033813e-01   5.0580017e-01   1.3901795e-01  -2.0529739e-01  -3.2188462e-01  -3.0713286e-01  -2.9334114e-01  -4.3259382e-01  -3.4030612e-01  -4.0284918e-01  -4.0376362e-01  -3.5547397e-01  -3.0728593e-01  -3.8470013e-01  -3.9756401e-01  -3.3459486e-01  -3.2857670e-01  -2.3353283e-01  -1.6510464e-01   3.9815053e-04   6.6475668e-01   1.0983185e+00   9.9861338e-01   1.3540847e+00   1.5447110e+00   1.5500232e+00   1.0657133e+00   8.5484797e-01   1.0646855e+00   1.2447930e+00  -1.7468342e-02
   1.0000000e+00  -8.4769107e-01  -3.3345162e+00  -3.9625992e+00  -4.2885463e+00  -3.8491619e+00  -2.9550948e+00  -1.7965231e+00  -1.5434295e+00  -1.0651050e+00  -3.9635702e-01  -3.7957177e-01  -3.0091658e-01  -2.9583343e-01  -3.2507552e-01  -2.3498465e-01  -2.9010847e-01  -2.9012101e-01  -3.6776815e-01  -3.4442802e-01  -3.9847584e-01  -4.3819761e-01  -4.2243590e-01  -4.0205148e-01  -4.1245570e-01  -4.8554073e-01  -5.4919614e-01  -4.6338940e-01  -6.1931562e-01  -5.9980847e-01  -6.8167680e-01  -6.6431063e-01  -6.9507975e-01  -6.4007247e-01  -7.1457275e-01  -8.6139741e-01  -8.1793984e-01  -7.6820495e-01  -8.0709929e-01  -6.2952595e-01  -6.4481622e-01  -5.5388232e-01  -4.8296701e-01  -4.1753434e-01  -3.3218330e-01  -2.8574425e-01  -1.8226335e-01  -1.2806482e-01  -1.6588054e-01  -1.9315234e-02  -1.7102461e-02   7.7135896e-02   1.0211212e-02   1.2335420e-01   5.5210035e-02   1.3795225e-01   1.0566755e-01   9.3313562e-02   1.6599283e-01   1.9736733e-01   2.4078200e-01   2.7659648e-01   2.1934859e-01   2.9247426e-01   2.6711293e-01   3.6574321e-01   4.1700351e-01   4.3943844e-01   4.6308033e-01   5.2364063e-01   5.5810391e-01   5.6102789e-01   6.1924024e-01   6.9422391e-01   5.8591906e-01   5.5526588e-01   6.4219384e-01   6.4212247e-01   6.6636885e-01   6.4601576e-01   6.1219664e-01   5.9209142e-01   6.1176923e-01   6.1185852e-01   4.3219329e-01   5.0137980e-01   5.0657370e-01   4.9187026e-01   4.4918179e-01   3.9054560e-01   4.1438772e-01   3.9156044e-01   3.8220148e-01   4.4855850e-01   3.0911066e-01   3.7216335e-01   3.7723632e-01   4.3039311e-01   5.6177257e-01   7.9734075e-01   9.3655820e-01   1.0953562e+00   1.2975890e+00   1.4712830e+00   1.8605766e+00   2.0862037e+00   2.0657020e+00   1.8943083e+00   1.6997257e+00   1.5199849e+00   1.3455642e+00   9.9931082e-01   6.4542683e-01   3.0166075e-01  -2.3246595e-01  -4.3691179e-01  -4.6338196e-01  -3.4220825e-01  -3.9280967e-01  -4.9893151e-01  -3.4169980e-01  -3.7063414e-01  -3.4091396e-01  -3.7964935e-01  -3.3560319e-01  -3.4531156e-01  -3.1841924e-01  -4.9727497e-01  -3.7249542e-01  -4.0619922e-01  -2.7621259e-01   5.3882193e-03   5.1571053e-01   7.5490758e-01   8.2003670e-01   1.0413067e+00   1.0251715e+00   9.2841994e-01   9.1498830e-01   1.3304445e+00   1.6375383e+00
   1.0000000e+00   3.1222478e-02  -1.3754633e+00  -2.9385102e+00  -4.3366317e+00  -4.5952938e+00  -3.7612386e+00  -2.6371738e+00  -1.8437278e+00  -1.5755116e+00  -8.3251589e-01  -2.5397023e-01  -2.9073538e-01  -2.4502680e-01  -2.9908810e-01  -2.6982886e-01  -3.1098036e-01  -3.7153181e-01  -2.7676506e-01  -3.8290271e-01  -3.9093359e-01  -3.9935929e-01  -4.1380069e-01  -4.4765406e-01  -4.7940491e-01  -5.5381776e-01  -5.1161134e-01  -6.0473943e-01  -6.3993760e-01  -7.5226620e-01  -7.6771235e-01  -8.0101210e-01  -8.8223701e-01  -8.6730440e-01  -9.4975335e-01  -9.7911069e-01  -9.3614714e-01  -9.5480620e-01  -9.3095688e-01  -9.1977052e-01  -7.7192591e-01  -7.6753307e-01  -7.1514403e-01  -5.7953658e-01  -4.6513348e-01  -3.5268272e-01  -3.2021828e-01  -1.6436227e-01  -9.6933712e-02  -1.4169685e-01  -1.1058570e-01  -6.1592505e-02  -5.2052962e-02  -9.1082309e-02  -2.6013558e-02   3.1425217e-03   1.3665054e-03  -6.3785936e-02  -1.8531501e-02   4.3280660e-02   1.2457798e-01   8.0917887e-02   1.1555438e-01   1.3824996e-01   1.6291309e-01   2.9127763e-01   3.0902002e-01   3.0878515e-01   3.0708819e-01   3.7675409e-01   4.0275442e-01   4.9579163e-01   4.7374270e-01   5.5822335e-01   5.8050438e-01   6.2484439e-01   5.7830035e-01   7.1182989e-01   5.7891368e-01   6.6611830e-01   5.6380064e-01   5.9147390e-01   6.4588492e-01   5.6685540e-01   5.7339728e-01   4.8243944e-01   5.3086973e-01   5.1002394e-01   4.9377331e-01   4.0911589e-01   3.5374514e-01   3.9086950e-01   3.9085148e-01   4.2356865e-01   2.8570417e-01   3.2624954e-01   4.8392643e-01   4.3512896e-01   6.4798496e-01   8.6439761e-01   9.5497160e-01   1.1090369e+00   1.2640147e+00   1.5235434e+00   1.6627161e+00   1.5181199e+00   1.5497941e+00   1.4727752e+00   1.2193662e+00   1.0385147e+00   9.7607084e-01   8.3311783e-01   6.1793071e-01   3.7199642e-01   7.5122113e-02  -4.8965669e-02  -7.4283968e-02  -9.3774212e-02  -5.6784565e-02  -1.3921222e-01  -1.1743537e-01  -1.2850048e-01  -6.4291665e-02  -7.6070972e-02  -4.9396706e-02  -7.4513136e-02  -1.1254343e-01  -1.0580930e-01  -1.0566519e-01   1.4992751e-02   4.0366492e-01   9.3355984e-01   1.1528629e+00   1.2389775e+00   1.6198013e+00   1.8299087e+00   1.6197791e+00   1.2379932e+00   1.0095059e+00   1.2574185e+00   3.8449971e-01
   1.0000000e+00  -2.8311800e+00  -4.1124831e+00  -4.0614290e+00  -3.8555857e+00  -3.3611327e+00  -2.4278798e+00  -1.6211370e+00  -1.4593003e+00  -1.0390717e+00  -5.9686391e-01  -6.2525922e-01  -6.4227962e-01  -6.2613037e-01  -5.6765936e-01  -5.7122643e-01  -5.5488135e-01  -5.5528888e-01  -6.3400199e-01  -6.4587558e-01  -5.8676645e-01  -5.4862847e-01  -5.8950420e-01  -6.5057444e-01  -6.6849357e-01  -6.3679418e-01  -6.6449094e-01  -6.4822988e-01  -6.6396084e-01  -7.2321208e-01  -7.5627753e-01  -7.1563096e-01  -7.6180518e-01  -7.5921512e-01  -7.6084101e-01  -7.7593314e-01  -6.8428780e-01  -6.8640648e-01  -6.5001809e-01  -6.4318655e-01  -6.3496640e-01  -5.6210600e-01  -5.6381163e-01  -4.2114446e-01  -3.1148550e-01  -2.6872404e-01  -2.5507366e-01  -1.4118251e-01  -1.5500041e-01  -1.3542433e-01  -1.0502334e-01  -3.2353451e-02  -1.8956702e-01  -1.0332791e-01   5.2601911e-03  -3.2500296e-02   9.9689452e-03  -2.0597672e-02   9.2997292e-02   1.0755608e-02   2.9087673e-02   4.1281836e-02   4.9900466e-02   5.1211483e-02   1.4463626e-01   2.4807566e-01   2.7334543e-01   2.7609764e-01   3.3877226e-01   3.2039875e-01   3.5451854e-01   4.2948107e-01   4.4202789e-01   4.1592741e-01   4.4937159e-01   5.0170438e-01   5.3746816e-01   4.4000605e-01   5.1809036e-01   4.1114723e-01   5.1021825e-01   4.9521125e-01   5.2319586e-01   5.4339358e-01   4.9373680e-01   4.3759221e-01   4.7904120e-01   4.7289860e-01   4.3814250e-01   4.6895507e-01   4.3685121e-01   4.5025097e-01   4.3792278e-01   4.3234106e-01   5.8312370e-01   5.9430920e-01   6.6231917e-01   8.4940355e-01   9.8610296e-01   1.0617927e+00   1.2440664e+00   1.3374206e+00   1.5012826e+00   1.6782283e+00   1.6659900e+00   1.6640763e+00   1.5308710e+00   1.4195039e+00   1.3416653e+00   1.2032545e+00   9.6364805e-01   7.5271405e-01   4.8058830e-01   3.2904195e-01   3.0307319e-01   2.4779954e-01   4.0267508e-01   4.2428150e-01   9.7686204e-02   9.0085998e-02   5.1017840e-02   7.3889147e-02   1.5656306e-01   1.5190248e-01   1.0683231e-01   1.6056534e-01   2.4724843e-01   2.6842468e-01   1.8629764e-01   3.7684680e-01   7.3142680e-01   1.1974371e+00   1.2148083e+00   1.2532539e+00   1.2873405e+00   1.0469576e+00   1.0381197e+00   9.4162220e-01   8.8437438e-01   8.0324554e-01  -3.0924967e-01
   1.0000000e+00  -9.0509546e-01  -3.1870049e+00  -4.3986034e+00  -4.4404661e+00  -3.7005224e+00  -2.5771311e+00  -1.5759983e+00  -1.4618045e+00  -9.3270970e-01  -3.0430629e-01  -2.3350248e-01  -2.4531332e-01  -2.3056759e-01  -2.2725439e-01  -3.5987297e-01  -2.5862173e-01  -3.5162922e-01  -3.1884151e-01  -3.1723656e-01  -3.4431301e-01  -3.6365412e-01  -3.5443783e-01  -4.3375079e-01  -4.4517004e-01  -4.1618560e-01  -4.6178602e-01  -5.3237393e-01  -5.6929736e-01  -5.7826007e-01  -5.9872584e-01  -6.3402448e-01  -7.4985622e-01  -7.8931347e-01  -7.4757555e-01  -8.3205370e-01  -8.9965537e-01  -8.7882942e-01  -8.1887582e-01  -7.8111995e-01  -6.8753801e-01  -6.3233744e-01  -6.2106882e-01  -5.3627868e-01  -3.6348952e-01  -3.3490119e-01  -2.6778472e-01  -2.4807982e-01  -1.4733633e-01  -6.3935048e-02  -2.9208707e-02   1.2247563e-02  -2.6333018e-03  -2.7609020e-02  -6.8001809e-03  -1.4669213e-02   4.8785369e-02   6.1676308e-02   3.3863253e-02   1.2082175e-01   8.8222695e-02   1.0764616e-01   5.4155527e-02   9.8707475e-02   1.3245374e-01   7.2537911e-02   1.4618289e-01   2.2457880e-01   3.2946202e-01   3.6481000e-01   3.9222985e-01   4.7202603e-01   5.3310669e-01   4.9850800e-01   5.4119920e-01   5.9553117e-01   5.0367741e-01   6.2364603e-01   4.7626551e-01   5.7223228e-01   5.7939232e-01   5.8188200e-01   5.9330695e-01   5.3056904e-01   5.1618651e-01   4.6633123e-01   4.9856981e-01   4.2222138e-01   4.6672045e-01   4.9254859e-01   4.9047712e-01   4.8172394e-01   5.0320555e-01   3.8515785e-01   4.4743143e-01   5.5340945e-01   6.0044023e-01   8.4845911e-01   9.4928254e-01   1.0978215e+00   1.2424580e+00   1.4006310e+00   1.6749037e+00   1.9376587e+00   2.1020241e+00   1.9814815e+00   1.8106021e+00   1.6038142e+00   1.4352566e+00   1.0537722e+00   8.6820481e-01   5.2316574e-01   1.3391141e-01  -1.2754371e-01  -2.9007245e-01  -2.9283152e-01  -3.1806437e-01  -2.4089928e-01  -3.7600394e-01  -3.1766862e-01  -2.8888007e-01  -3.6214878e-01  -3.3418436e-01  -3.2434423e-01  -2.8617584e-01  -2.3172284e-01  -2.7183309e-01  -3.5214549e-01  -1.2873285e-01  -3.7739245e-02   5.5632052e-01   9.4165232e-01   9.0497836e-01   1.1104800e+00   1.3182986e+00   1.3975334e+00   1.0522267e+00   8.1867863e-01   1.2408042e+00   1.2909514e+00  -1.8911752e-01
   1.0000000e+00   1.7977536e+00  -3.3237439e-01  -2.5926004e+00  -3.6858328e+00  -3.7870640e+00  -3.6752564e+00  -3.0293307e+00  -1.9705126e+00  -1.6017721e+00  -1.3708990e+00  -6.7144310e-01  -5.2447866e-01  -4.8850673e-01  -5.3685068e-01  -5.2381070e-01  -4.7572013e-01  -4.9378038e-01  -5.2029574e-01  -5.3976031e-01  -5.6689241e-01  -5.4087554e-01  -5.2541833e-01  -5.7650344e-01  -5.8769751e-01  -6.1516987e-01  -6.9694307e-01  -6.4554943e-01  -6.7669355e-01  -6.9719498e-01  -8.7672368e-01  -9.0297251e-01  -8.8332148e-01  -1.0117004e+00  -1.0024309e+00  -9.9449774e-01  -1.0285900e+00  -9.7349158e-01  -9.7565864e-01  -9.6527695e-01  -9.1772222e-01  -7.8149300e-01  -7.6501011e-01  -6.7988435e-01  -5.6820734e-01  -4.0588383e-01  -2.8255458e-01  -2.4295548e-01  -1.2331547e-01  -8.0772188e-02  -8.3925458e-02   1.0081739e-02  -6.5556778e-02   3.0635064e-02   1.9557756e-02   8.3215400e-02   1.0698229e-01   1.0678645e-01   1.5882153e-01   9.6494302e-02   1.6016634e-01   1.9084966e-01   3.2197225e-01   1.8837207e-01   2.7041602e-01   3.4295975e-01   2.9748904e-01   3.9731872e-01   4.0266390e-01   4.9443405e-01   4.6043057e-01   4.8702367e-01   5.4146847e-01   5.8011903e-01   5.9558803e-01   5.6407086e-01   5.9132624e-01   5.4543484e-01   5.3369406e-01   5.4596407e-01   4.8435254e-01   4.5498384e-01   4.9217859e-01   4.1600493e-01   5.4954640e-01   4.3102005e-01   4.4271726e-01   5.1726032e-01   3.7443887e-01   3.2597643e-01   4.2073811e-01   3.8540828e-01   3.9632686e-01   3.3291940e-01   3.2746889e-01   3.9480531e-01   3.4544457e-01   5.0081667e-01   6.0359063e-01   6.9699673e-01   8.8446528e-01   1.0891852e+00   1.1844487e+00   1.4698530e+00   1.7377888e+00   1.8869144e+00   1.8479924e+00   1.7786704e+00   1.5925978e+00   1.3724555e+00   1.2047677e+00   9.6978324e-01   6.0905501e-01   3.1513107e-01   3.7362368e-02  -9.2693750e-02  -1.5897284e-01  -1.3219737e-01  -1.0912900e-01  -1.7200389e-01  -1.7120222e-01  -1.7879658e-01  -1.1668061e-01  -1.7824149e-01  -1.8174116e-01  -1.9085858e-01  -2.2475094e-01  -1.4139647e-01  -1.6915503e-01  -7.9941451e-02   4.9211371e-02   4.8494431e-01   8.4441667e-01   8.7107318e-01   1.0796332e+00   1.4266155e+00   1.4642550e+00   1.4121496e+00   1.4599439e+00   2.2089559e+00   7.6217906e-01
   1.0000000e+00  -1.3392321e+00  -3.7705323e+00  -4.2184633e+00  -4.3865352e+00  -4.0497595e+00  -3.6183574e+00  -2.1026805e+00  -1.2166817e+00  -1.0934064e+00  -3.4871428e-01   7.2675365e-02  -4.5453171e-02  -1.1855231e-01  -1.2056722e-01  -1.4132528e-01  -1.5756920e-01  -1.9319293e-01  -1.0779387e-02  -1.5730509e-01  -1.6021604e-01  -1.1857288e-01  -2.1856874e-01  -2.0750070e-01  -3.1209192e-01  -2.1399372e-01  -3.0308869e-01  -3.3589838e-01  -3.2342928e-01  -3.9556863e-01  -4.3130809e-01  -4.0102257e-01  -4.1227950e-01  -4.6320544e-01  -4.8614218e-01  -5.6050916e-01  -6.6775701e-01  -5.4936247e-01  -5.3263170e-01  -5.5567425e-01  -3.5063244e-01  -4.8202023e-01  -4.5936626e-01  -2.8562475e-01  -2.3766889e-01  -1.2193295e-01  -1.9872091e-01  -1.1175049e-01  -1.5294259e-02   3.6914314e-02   5.7570836e-02   6.0881005e-02   9.8923741e-02   6.1755987e-02   1.2546058e-01   7.6927029e-02   8.9593917e-02   7.9297957e-02   1.7160048e-01   1.5309361e-01   1.8771760e-01   1.3899099e-01   1.0463236e-01   1.5742397e-01   1.4384326e-01   1.0159607e-01   1.4924418e-01   1.9015354e-01   2.5081733e-01   2.6323186e-01   2.2861787e-01   2.6040660e-01   2.5206875e-01   3.1218075e-01   3.3758006e-01   4.4690400e-01   4.1767650e-01   3.9694520e-01   4.9002923e-01   4.1425490e-01   4.5316289e-01   3.8504502e-01   4.5757665e-01   4.9303390e-01   4.4866055e-01   3.6682703e-01   3.5415022e-01   2.8937475e-01   4.4353143e-01   2.9996087e-01   2.7087695e-01   3.5940105e-01   3.4063658e-01   3.7721519e-01   3.3005430e-01   4.7387755e-01   6.3930445e-01   8.2548600e-01   1.0766302e+00   1.2158223e+00   1.4763421e+00   1.5654038e+00   1.7566799e+00   1.9632736e+00   1.8022065e+00   1.8715630e+00   1.5881582e+00   1.5570021e+00   1.2111826e+00   9.9551554e-01   7.7555487e-01   4.4815887e-01   4.0693780e-02  -2.1875909e-01  -2.8239589e-01  -2.9082842e-01  -1.3331145e-01  -2.5717120e-01  -2.2606573e-01  -2.8495238e-01  -1.7056246e-01  -7.9052886e-02  -1.3397586e-01  -2.1707951e-01  -2.2412122e-01  -1.7779052e-01  -9.9684027e-02  -1.2419888e-01  -4.8424359e-03   6.9417189e-02   5.0649452e-01   9.2116220e-01   9.8954782e-01   1.0242886e+00   9.5412500e-01   9.3017469e-01   7.6594933e-01   6.2615988e-01   8.9980150e-01   6.2582335e-01  -1.6685848e+00
   1.0000000e+00   1.1271139e+00  -1.2065369e+00  -3.1685943e+00  -4.2069201e+00  -4.8648562e+00  -3.8607197e+00  -2.3131264e+00  -1.9681859e+00  -1.3289326e+00  -2.3773078e-01  -6.5969696e-02  -2.5363848e-01  -8.2595703e-02  -1.1708557e-01  -9.3719155e-02  -8.4911996e-02  -5.3414193e-02  -2.2842613e-01  -2.3729379e-01  -1.9935851e-01  -2.3439592e-01  -3.0233762e-01  -4.2338680e-01  -2.9095713e-01  -3.5716082e-01  -4.0997570e-01  -4.0920066e-01  -5.9833083e-01  -8.0708375e-01  -7.7746150e-01  -9.4230401e-01  -1.0194403e+00  -1.0913216e+00  -1.0394032e+00  -1.1458890e+00  -1.1084810e+00  -1.0693586e+00  -1.1760860e+00  -1.0124867e+00  -9.5549027e-01  -9.3606138e-01  -7.9448352e-01  -7.0323069e-01  -6.0097046e-01  -3.7029905e-01  -2.7276750e-01  -2.5834753e-01  -2.0354508e-01   2.6260223e-02  -1.1806996e-02  -5.7805400e-02  -4.1987994e-02  -5.9779496e-02   1.2552368e-01   5.0891033e-02   3.5117019e-02   1.0383477e-01   2.2167473e-01   1.7556609e-01   7.3243475e-02   3.1442794e-01   2.5219548e-01   3.2293297e-01   4.0577360e-01   3.2896088e-01   3.9883353e-01   5.0541460e-01   6.5518450e-01   6.6657741e-01   8.0094567e-01   7.0863282e-01   7.5420637e-01   8.6578948e-01   8.3686767e-01   8.6425884e-01   9.2781835e-01   1.0070271e+00   8.1480723e-01   7.9324656e-01   6.1709314e-01   8.5497731e-01   6.5043263e-01   6.1873787e-01   6.3381751e-01   6.1417650e-01   5.8702752e-01   4.3395344e-01   5.3704906e-01   4.0066589e-01   3.8607852e-01   5.0133816e-01   4.4372456e-01   4.1581159e-01   3.5663869e-01   3.1563332e-01   2.8609237e-01   2.0755019e-01   1.9622244e-01   3.3400211e-01   3.5894481e-01   2.6306010e-01   4.1995109e-01   2.8974985e-01   3.0659032e-01   3.1747356e-01   5.0421184e-01   7.1558706e-01   1.0446147e+00   1.3610139e+00   1.4094166e+00   9.9409812e-01   7.4049827e-01   7.0681157e-01   7.5557938e-01   1.0114552e+00   9.5665396e-01   7.2448278e-01   1.0175029e-01  -1.1676768e-01  -2.0583385e-01  -2.4564995e-01  -1.0356718e-01  -8.3055288e-02  -2.7174569e-01  -1.6423144e-01  -3.3369685e-01  -3.0850500e-01  -3.0961379e-01  -7.2794796e-02  -1.0155725e-01   1.7992454e-02   2.7151648e-01   9.3946598e-01   1.7096667e+00   1.6773713e+00   1.9766380e+00   1.9405660e+00   1.3793531e+00   1.1918775e-01  -1.9717828e-01
   1.0000000e+00  -3.4651990e-01  -1.8067202e+00  -3.3226331e+00  -4.2123289e+00  -4.1208149e+00  -3.4437538e+00  -2.5795720e+00  -1.8180592e+00  -1.7119177e+00  -1.1309554e+00  -5.9730901e-01  -6.2314008e-01  -4.9161856e-01  -4.9783575e-01  -5.1901344e-01  -4.8741256e-01  -4.9317327e-01  -4.0095822e-01  -4.4447156e-01  -5.2533324e-01  -5.2357442e-01  -5.4507490e-01  -5.7927103e-01  -6.7028508e-01  -5.3989495e-01  -5.6602514e-01  -5.6283849e-01  -6.0168541e-01  -5.6566054e-01  -6.1964573e-01  -7.0199521e-01  -6.5498264e-01  -6.6094854e-01  -6.9450114e-01  -7.2405288e-01  -7.1564142e-01  -6.7620298e-01  -7.0301454e-01  -6.6022764e-01  -5.4751056e-01  -4.5390698e-01  -3.5274304e-01  -2.6769768e-01  -1.2100452e-01  -1.2873981e-01  -5.9636200e-02   2.1974821e-02   8.7145005e-02   1.5070724e-01   2.1685859e-01   1.7361597e-01   1.9546852e-01   2.2050789e-01   2.1474710e-01   2.1782603e-01   2.3351279e-01   1.8875667e-01   2.2740393e-01   2.9901272e-01   2.5921356e-01   2.2045893e-01   2.9573250e-01   3.0926679e-01   3.7568235e-01   3.9004782e-01   4.5808678e-01   4.8473316e-01   4.9149098e-01   6.1542774e-01   6.2049749e-01   6.6778677e-01   7.2678771e-01   7.1147561e-01   7.4148524e-01   7.7349866e-01   7.4842370e-01   7.5196705e-01   7.6541251e-01   7.7834362e-01   7.3170493e-01   7.1523475e-01   7.1078166e-01   6.7599074e-01   6.9935408e-01   6.2419825e-01   6.9317174e-01   5.8296873e-01   5.2753164e-01   5.5044955e-01   5.5008667e-01   5.4462514e-01   5.0686175e-01   5.3722873e-01   4.6629066e-01   5.3349148e-01   5.7385728e-01   7.3217834e-01   9.0270301e-01   9.7638488e-01   1.0953449e+00   1.2391007e+00   1.4508918e+00   1.7447209e+00   1.8068179e+00   1.7414540e+00   1.6775572e+00   1.4564766e+00   1.2463912e+00   1.0615517e+00   8.1910280e-01   5.8359386e-01   3.1634373e-01   4.2796798e-02  -8.2494151e-02  -1.2552620e-01  -1.4300239e-01  -2.0925252e-01  -2.3982402e-01  -2.1750832e-01  -2.5360692e-01  -2.0927351e-01  -2.5200910e-01  -2.2349559e-01  -2.1856373e-01  -2.6220726e-01  -3.1888828e-01  -3.1451169e-01  -2.4856956e-01  -3.9410487e-02   6.1982906e-01   1.0450296e+00   1.1040336e+00   1.4551289e+00   1.4765274e+00   1.1088838e+00   2.8384124e-01  -1.2157511e-01  -2.4986273e-01  -5.4945838e-01  -2.0945256e+00
   1.0000000e+00  -3.5488202e-01  -2.0173122e+00  -2.7511032e+00  -3.6874155e+00  -4.1642421e+00  -3.7203246e+00  -2.5742411e+00  -1.8231181e+00  -1.5071304e+00  -7.3538355e-01  -3.7516132e-01  -3.2078803e-01  -3.1927218e-01  -2.8999154e-01  -3.1852397e-01  -1.3208657e-01  -9.9046766e-02  -2.1290473e-01  -3.6502719e-01  -4.4036503e-01  -2.9678712e-01  -2.6387827e-01  -2.8798211e-01  -3.5181121e-01  -3.0596706e-01  -3.5546728e-01  -4.3565195e-01  -3.5343158e-01  -2.4045913e-01  -2.6624472e-01  -3.1877489e-01  -4.4254842e-01  -4.6741501e-01  -4.3733686e-01  -4.6797131e-01  -4.8092176e-01  -5.1358322e-01  -4.7463721e-01  -3.0518901e-01  -3.5918690e-01  -4.1541967e-01  -3.3677869e-01  -1.6923236e-01  -1.3046234e-01  -1.9634273e-01  -3.8579751e-01  -3.1618997e-01  -1.8662988e-01   2.7705569e-03  -6.9400180e-02  -2.9409998e-01  -1.0781874e-01  -3.0023742e-02   5.1812342e-02  -1.8258807e-02  -4.0332317e-02   4.4647918e-02  -2.0113115e-02   8.1541009e-03   8.8719316e-02  -1.6254138e-02  -1.0936266e-01  -1.2409515e-01   4.7328766e-02   8.6205122e-02   9.3198068e-02   1.4693656e-01   1.0428173e-01   1.3531325e-01   1.7715264e-01   2.3645064e-01   2.1198449e-01   1.4540887e-01   3.1117124e-01   2.8762907e-01   2.7326408e-01   3.9693127e-01   4.1915224e-01   4.2663899e-01   5.2696094e-01   6.1715921e-01   5.8290423e-01   5.7605551e-01   6.0637945e-01   5.7206072e-01   5.4762478e-01   6.3733320e-01   5.3694321e-01   5.9546129e-01   5.0479207e-01   4.7922305e-01   6.0365817e-01   5.8925517e-01   6.9699779e-01   7.5346974e-01   8.0610917e-01   1.0441579e+00   1.1138948e+00   1.1660038e+00   1.5701829e+00   1.9268073e+00   2.2246267e+00   2.3719011e+00   2.4566159e+00   2.3408680e+00   2.0971055e+00   1.8873084e+00   1.5145547e+00   1.2484381e+00   1.0216181e+00   6.8237205e-01   2.4338850e-01  -7.7060577e-02  -3.2231610e-02  -1.4205391e-01  -2.8681863e-01  -1.9323662e-01  -2.1575944e-01  -2.2076069e-01  -2.7887331e-01  -2.0343000e-01  -1.0512337e-01  -2.4426135e-01  -2.8223422e-01  -1.6890588e-01  -2.3082780e-01  -9.7135339e-02  -1.0879341e-01   1.4078789e-01   5.9774344e-01   1.4644020e+00   1.6943045e+00   1.1047876e+00   5.4193241e-01  -3.4816569e-01  -9.4777413e-01  -1.2609503e+00  -1.3505538e+00  -5.9631372e-01  -3.8989984e-01
   1.0000000e+00  -6.9571025e-01  -2.1477989e+00  -2.7374611e+00  -3.6913222e+00  -4.1340061e+00  -3.5643223e+00  -2.2957115e+00  -1.3806219e+00  -1.2721257e+00  -9.0348998e-01  -1.1909540e-01  -1.1703867e-01  -2.6526746e-01  -9.5696679e-02  -4.2525436e-02  -1.1002612e-01  -1.9135208e-01  -1.4179998e-01   2.0760172e-03  -8.3132412e-02  -2.8773254e-01  -1.3232974e-01  -9.4781283e-02  -1.2768742e-01   8.8703734e-03  -1.4533512e-01  -2.1786153e-01  -1.9915469e-01   1.5820578e-02   8.4706149e-02  -1.7011264e-01  -9.0942505e-03   1.2991381e-01   9.0407823e-02  -3.5993344e-02   1.3025313e-01   8.8470235e-02  -3.5441970e-02   3.6623097e-02   6.8806966e-02   1.8968940e-01   2.1794038e-01  -3.9937695e-03   2.1759494e-01   3.5610420e-01   3.7154021e-01   1.5567108e-02   3.1857958e-02   1.6846149e-01   1.3148953e-01   2.1266549e-01   3.2375641e-01   2.0480244e-01   1.4524219e-01   2.3690347e-01   2.8681590e-01   2.2336820e-01   1.5689872e-01   2.0051962e-01   1.9916374e-01   3.3280159e-01   1.9119880e-01  -6.8251411e-02  -2.3654620e-02   1.1813705e-01   2.1915849e-01   9.2517996e-02   3.5687362e-02   1.4403246e-01   1.4835070e-01   1.8124668e-01   2.9614614e-01   3.5702192e-01   2.9655112e-01   4.2302713e-01   3.5098763e-01   3.6168916e-01   4.9691192e-01   6.1995471e-01   4.6494337e-01   5.1732231e-01   6.0500398e-01   6.1386959e-01   6.9270661e-01   5.4359967e-01   5.0786129e-01   4.7102041e-01   6.0220526e-01   5.5432424e-01   4.7925500e-01   5.8462531e-01   6.5207587e-01   4.8344312e-01   4.9505410e-01   4.7380297e-01   6.0228522e-01   8.3748240e-01   7.9034452e-01   8.8194669e-01   1.2777879e+00   1.5750154e+00   1.7515577e+00   1.9936853e+00   2.0269483e+00   2.1997610e+00   1.9976365e+00   1.6466571e+00   1.5667690e+00   1.2377161e+00   8.9806731e-01   5.7933568e-01   1.9504636e-01  -1.6387645e-01  -3.4371309e-01  -4.1135462e-01  -4.0049355e-01  -3.8278381e-01  -4.4196193e-01  -3.1360242e-01  -5.6839033e-01  -5.3014182e-01  -4.5299439e-01  -5.8253482e-01  -4.3214070e-01  -4.0239299e-01  -4.8565892e-01  -4.3347044e-01  -4.1705879e-01  -2.5903928e-01   2.8162516e-01   1.0089469e+00   1.4131532e+00   8.7815650e-01   4.2955218e-01  -8.5818475e-01  -1.8978486e+00  -2.3000739e+00  -2.5881595e+00  -2.2403108e+00  -1.5762255e+00
   1.0000000e+00   6.9868822e-01  -9.9428113e-01  -2.8687394e+00  -3.6903006e+00  -4.9413915e+00  -4.5027289e+00  -3.0755036e+00  -1.8237827e+00  -1.6609501e+00  -6.9644923e-01   1.3858225e-01   9.8865364e-02   1.6516505e-01   1.3164219e-01   1.8458099e-01   9.0895027e-02   1.5014677e-01   1.3173782e-02   1.0583049e-01   7.8051938e-02   5.6350012e-02   6.3054961e-02  -6.3788467e-02  -7.2278730e-02  -1.2033203e-01  -6.9387799e-02  -2.7220120e-01  -3.0603236e-01  -3.5535801e-01  -3.2040489e-01  -4.7010395e-01  -5.2676990e-01  -6.3192598e-01  -7.8464644e-01  -6.6784446e-01  -7.7553740e-01  -6.9314828e-01  -8.1613996e-01  -7.9334232e-01  -7.3119634e-01  -7.1483148e-01  -5.7327511e-01  -5.5265047e-01  -4.4526238e-01  -3.5333393e-01  -1.3785657e-01  -5.6483920e-02   4.4144409e-02   6.4251215e-02   1.4301576e-01   2.0320187e-01   2.0354538e-01   2.2186206e-01   2.7611339e-01   2.6698862e-01   3.0890007e-01   3.4086268e-01   3.2323274e-01   2.9506424e-01   3.1399747e-01   3.3391739e-01   3.9712537e-01   3.0357052e-01   3.7799126e-01   3.0138544e-01   3.3789697e-01   4.8439749e-01   4.2320809e-01   5.6672871e-01   6.2119883e-01   6.7293995e-01   6.0363899e-01   8.1480714e-01   7.9822876e-01   7.3052758e-01   7.8971049e-01   7.3560159e-01   8.4851627e-01   7.7868687e-01   8.4374539e-01   7.2356657e-01   6.5735451e-01   7.5879367e-01   6.7613659e-01   4.2784225e-01   5.5130200e-01   6.9790613e-01   4.1192822e-01   4.3472672e-01   3.4167372e-01   3.1211325e-01   3.5878545e-01   2.1346519e-01   2.7029874e-01   1.6866715e-01   2.2370315e-01   1.6234058e-01   1.7986393e-01   1.0216462e-01   1.6900085e-01   2.8983327e-01   6.1961460e-01   1.1128762e+00   1.1205075e+00   1.2278582e+00   1.3114625e+00   1.8145896e+00   1.9547182e+00   1.8911984e+00   1.7919809e+00   1.4373608e+00   1.2922683e+00   1.1062456e+00   7.7124955e-01   4.1967147e-01  -1.7094752e-01  -6.5991111e-01  -6.5759961e-01  -7.7445744e-01  -5.6553718e-01  -5.8004309e-01  -7.6258755e-01  -5.5580298e-01  -7.4505125e-01  -7.7727533e-01  -6.9833293e-01  -7.0498494e-01  -6.5595874e-01  -7.1754842e-01  -6.1610509e-01  -6.5229658e-01  -3.1117607e-01   4.2416038e-01   7.0430484e-01   6.2839304e-01   8.3111852e-01   7.2288866e-01   5.5389440e-01  -2.7358106e-01  -1.7440188e-01
   1.0000000e+00  -1.6906464e+00  -3.6390053e+00  -4.3779550e+00  -4.3218593e+00  -3.3846680e+00  -2.1226052e+00  -1.5603739e+00  -1.4191794e+00  -5.8954757e-01  -1.8247770e-01  -2.4091722e-01  -3.0120493e-01  -2.4404118e-01  -3.2515994e-01  -3.2578874e-01  -3.5124171e-01  -2.8233425e-01  -2.8186429e-01  -3.4967035e-01  -3.3933409e-01  -4.5838821e-01  -3.5303751e-01  -4.5123462e-01  -4.8603458e-01  -5.0030449e-01  -4.2630597e-01  -5.7946171e-01  -5.1033428e-01  -5.7354786e-01  -6.5607489e-01  -6.6233098e-01  -7.9149480e-01  -7.9258287e-01  -8.4949203e-01  -8.9311352e-01  -8.7957845e-01  -9.1104507e-01  -8.4731019e-01  -9.1510846e-01  -8.9947374e-01  -8.0434150e-01  -7.6116345e-01  -6.7938163e-01  -6.3886088e-01  -4.3784989e-01  -3.8886355e-01  -3.4383952e-01  -1.7990558e-01  -1.3015877e-01  -6.7755255e-02  -1.4938726e-02  -2.2909464e-02   3.3344449e-02   9.0135815e-02   1.0098762e-01   9.0221749e-02   1.6640920e-01   2.0189761e-01   2.1031521e-01   1.8686779e-01   2.4076401e-01   2.3880053e-01   2.0544215e-01   2.8830874e-01   3.7334900e-01   3.6111607e-01   3.2570142e-01   4.2600994e-01   4.5630250e-01   5.5858920e-01   5.7127045e-01   6.5194420e-01   5.9047343e-01   6.3729020e-01   6.0062157e-01   5.8656263e-01   6.0180891e-01   5.8682541e-01   6.4200331e-01   5.5894774e-01   5.7551937e-01   5.8590594e-01   5.8293143e-01   5.5599798e-01   4.3920202e-01   5.5546809e-01   4.9120869e-01   5.7469148e-01   4.6422124e-01   4.9534473e-01   4.8498409e-01   4.0054793e-01   4.7032140e-01   3.6492477e-01   4.2119464e-01   4.4317893e-01   4.8753903e-01   6.1311327e-01   6.6625500e-01   7.6984683e-01   9.7280642e-01   1.2105886e+00   1.4058881e+00   1.6603789e+00   1.9042779e+00   2.1731435e+00   2.2811742e+00   2.1695877e+00   1.7558657e+00   1.6698885e+00   1.4036337e+00   9.9924521e-01   4.4922827e-01   1.0089155e-01  -4.7000091e-02  -1.7865758e-01  -2.1257178e-01  -2.7233519e-01  -2.7852267e-01  -2.5950519e-01  -2.3159271e-01  -1.8686334e-01  -2.3754619e-01  -2.3210817e-01  -2.6065343e-01  -2.3953499e-01  -2.5155403e-01  -1.4037725e-01  -1.4839276e-01  -1.2883809e-02   5.9650162e-01   1.2692555e+00   1.1929501e+00   7.5741836e-01   4.9170259e-01   3.0261603e-01   3.3091523e-01   2.8877862e-01   5.8528281e-01   4.2946920e-01
   1.0000000e+00   1.5613350e+00   1.0020880e+00  -6.6481734e-01  -3.8663356e-01  -3.5177234e-01  -2.6625741e-01  -2.2432562e-01   4.3380762e-01   1.8890302e-01   1.8560672e-01   1.2712106e+00   2.1598611e+00   2.0004513e+00   1.3980544e+00   1.1970809e+00   1.6535137e+00   1.5977568e+00   1.1288460e+00   6.7064309e-01   9.2776422e-01   1.9563876e+00   1.2869125e+00   1.5958155e+00   1.5041145e+00   1.3895672e+00   1.3170390e+00   1.2364448e+00   8.4468697e-01   9.2961477e-01   8.1134018e-01   8.4515034e-01   9.3259368e-01   7.0579545e-01   6.0719385e-01   6.2911731e-01   5.3995266e-01   5.9867344e-01   1.2892472e+00   1.1221513e+00   4.7427954e-01   5.7438155e-01   1.3036085e+00   5.5797656e-01  -2.0431579e-01   1.0000019e+00   1.5367255e+00   1.0840904e+00   5.4684598e-01   3.5950313e-01   1.2111354e+00   7.1936536e-01   6.8171390e-01   6.7267010e-01   5.9076867e-01   1.4074414e+00   1.0736194e+00   5.6581267e-01   4.2843007e-01   6.4728355e-01   6.9710458e-01   6.5022269e-01   7.4705775e-01   6.3419907e-01  -1.8195659e-01  -6.5373388e-02   5.9638525e-01   5.5558629e-01   3.6533408e-01   4.7642548e-01   5.9449785e-01   2.5449254e-01   3.6960999e-01   3.0604085e-01  -1.4160047e-01   9.8559033e-02   7.4282128e-02  -7.3142658e-02  -4.4134586e-01  -8.1254038e-01  -7.2416963e-01  -5.8991308e-01  -5.6884402e-01  -5.7743026e-01  -5.5805720e-01  -7.9451975e-01  -8.2818732e-01  -5.5343146e-01  -4.7569376e-01  -6.1375907e-01  -6.0949719e-01  -1.1107595e+00  -1.3980558e+00  -6.4989723e-01  -4.4022179e-01  -7.0243052e-01  -6.1731723e-01  -6.4532884e-01  -1.0141165e+00  -6.7660436e-01  -4.1533613e-01  -6.7461998e-01  -1.5093948e-01   3.1521984e-01   1.5501583e-01  -1.2937973e-01  -3.5677015e-01   3.8320944e-01   4.4892963e-01  -3.7786449e-01  -6.8166164e-01  -7.9470593e-01  -7.4674549e-01  -9.8330302e-01  -1.2041669e+00  -1.0225635e+00  -1.2530653e+00  -1.3399446e+00  -1.4016529e+00  -1.5428385e+00  -1.2359906e+00  -1.1698078e+00  -1.3553091e+00  -1.1510513e+00  -1.0557009e+00  -1.2759765e+00  -1.4592738e+00  -1.4610966e+00  -1.4257133e+00  -1.3179606e+00  -1.3540433e+00  -1.0793091e+00  -9.1544663e-01  -1.2392383e+00  -1.5341256e+00  -1.3216013e+00  -1.2814900e+00  -1.9601642e+00  -2.2354680e+00  -2.1532148e+00  -1.6566917e+00
   1.0000000e+00  -7.7544538e-01  -2.6148945e+00  -4.1156098e+00  -4.6224440e+00  -4.2077709e+00  -2.8881187e+00  -1.7748876e+00  -1.5334214e+00  -7.8812767e-01  -2.3055814e-01  -1.7247426e-01  -2.3560885e-01  -1.9865512e-01  -6.7100424e-02  -2.0559114e-01  -1.7315823e-01  -1.3623055e-01  -2.0263184e-01  -2.2112877e-01  -2.1728826e-01  -1.8900210e-01  -1.3382682e-01  -3.0605359e-01  -3.1184400e-01  -3.8384145e-01  -4.3553351e-01  -4.6054182e-01  -5.3181605e-01  -5.7945664e-01  -6.4990675e-01  -7.8690883e-01  -8.3927456e-01  -8.6290113e-01  -9.0666779e-01  -9.3892924e-01  -9.2809419e-01  -9.9226390e-01  -9.9682057e-01  -8.3218038e-01  -7.4866602e-01  -6.6845783e-01  -5.9461457e-01  -5.0400697e-01  -4.2011598e-01  -3.2065211e-01  -1.3602021e-01  -1.2437926e-01  -9.0013859e-03   1.6095062e-01   7.5122521e-02   1.6703371e-01   1.9227233e-01   5.6857602e-02   1.2838291e-01   7.4838605e-02   1.2401470e-01   1.4533587e-01   1.5946508e-01   2.8782267e-01   1.4635063e-01   2.1196453e-01   2.6194797e-01   2.6357655e-01   2.8859127e-01   3.7908218e-01   3.8657723e-01   4.2607092e-01   4.2984872e-01   4.8775886e-01   5.3732523e-01   5.8491295e-01   5.3992028e-01   5.2480591e-01   6.5851699e-01   5.8427711e-01   6.5820513e-01   7.1090292e-01   6.0280434e-01   6.2044332e-01   7.1744452e-01   6.0047858e-01   5.8305712e-01   6.1368164e-01   5.2067446e-01   5.4566402e-01   4.9322691e-01   4.8651546e-01   5.1167496e-01   3.5278434e-01   3.2599635e-01   4.5372495e-01   4.5606177e-01   3.3759827e-01   4.1203280e-01   4.6365788e-01   6.3874082e-01   8.0707640e-01   9.1949267e-01   1.1116940e+00   1.1910126e+00   1.5200804e+00   1.6528221e+00   1.8377711e+00   1.8714581e+00   1.7699963e+00   1.7279864e+00   1.4983517e+00   1.3378941e+00   1.0767738e+00   8.5190320e-01   5.4377484e-01  -5.6810484e-02  -2.7924210e-01  -3.4830039e-01  -4.1777042e-01  -4.5887924e-01  -4.9637501e-01  -4.7763571e-01  -4.6286804e-01  -4.7858229e-01  -4.8847662e-01  -4.9343229e-01  -4.8669395e-01  -4.9713104e-01  -4.4814910e-01  -4.5209343e-01  -4.2348946e-01  -2.9548323e-01   7.7829517e-02   7.7445308e-01   1.0582153e+00   8.7299128e-01   7.1640602e-01   9.6177610e-01   7.9736038e-01   5.7746246e-01   7.0107311e-01   1.0960328e+00   1.3774719e+00  -8.3818077e-02
   1.0000000e+00  -4.1581885e-01  -2.6699806e+00  -3.9188277e+00  -4.2859278e+00  -4.1730373e+00  -3.5864342e+00  -2.4782731e+00  -1.6071175e+00  -1.2033074e+00  -6.1922543e-01   1.7428966e-02   5.3203788e-02   8.4705873e-03  -2.1613481e-02  -4.8177053e-02   1.0946264e-02  -8.1707292e-03   2.4381886e-02  -5.0906177e-02  -1.1186844e-01  -2.1808309e-01  -1.9746335e-01  -2.5455607e-01  -2.2022851e-01  -2.5118857e-01  -1.5305095e-01  -2.2500646e-01  -2.5019196e-01  -3.0654025e-01  -3.9477326e-01  -4.7296976e-01  -4.8993288e-01  -5.6875650e-01  -5.8413565e-01  -6.8016799e-01  -6.1626224e-01  -6.1827975e-01  -5.0191530e-01  -5.7967299e-01  -6.1526397e-01  -4.6137905e-01  -5.1553950e-01  -2.5007357e-01  -1.1203171e-01  -1.4021641e-01  -6.4866156e-02   1.1728959e-02   8.7229755e-02   4.9946822e-02  -1.8702919e-02  -3.8101818e-02   1.0188210e-01   8.5884278e-02   8.6392522e-02   1.6597610e-01   1.4950330e-01   6.5244848e-02   9.5150478e-02   8.2403390e-02   1.7007610e-01   1.0696044e-01   7.4387385e-02   1.5145435e-01   1.6307007e-01   2.2700705e-01   2.6561159e-01   2.0018221e-01   2.6678603e-01   4.3800710e-01   4.2072468e-01   4.2027313e-01   3.8544460e-01   5.4033478e-01   5.5090693e-01   5.7259442e-01   6.3664678e-01   3.6484574e-01   4.7586302e-01   5.0793297e-01   5.3622916e-01   4.9876138e-01   3.6425715e-01   4.3130618e-01   3.4093185e-01   3.4171681e-01   2.9927904e-01   2.9545322e-01   3.2304497e-01   1.8775037e-01   2.4855097e-01   3.1842115e-01   2.6295503e-01   2.1912112e-01   2.1129784e-01   2.8779134e-01   3.8367423e-01   4.8830291e-01   6.1029986e-01   7.1906296e-01   8.9933020e-01   1.2216917e+00   1.4812646e+00   1.9755420e+00   2.1369438e+00   2.2035033e+00   1.9805765e+00   1.7782335e+00   1.6215691e+00   1.2650318e+00   8.1799092e-01   4.3137529e-01  -6.7228838e-02  -2.5054995e-01  -5.1024086e-01  -6.2090149e-01  -4.8252783e-01  -5.2497785e-01  -5.0795967e-01  -5.5455741e-01  -5.4843240e-01  -5.6902913e-01  -5.9566880e-01  -5.5315541e-01  -5.2527944e-01  -5.1928974e-01  -4.5434089e-01  -4.3765332e-01  -4.0310115e-01  -1.5144089e-01   4.2286249e-01   1.0134859e+00   1.1863353e+00   1.4863398e+00   1.6650043e+00   1.4339397e+00   8.5022616e-01   4.0344893e-01   6.0288941e-01   1.1377764e+00  -1.4408082e-01
   1.0000000e+00  -1.7599703e+00  -3.6249505e+00  -4.3383323e+00  -4.6164722e+00  -4.1712319e+00  -3.1721972e+00  -1.6707796e+00  -1.0825788e+00  -6.4855740e-01   1.4098636e-01   3.3016738e-01   3.1756185e-01   2.4611136e-01   2.1160175e-01   3.1208364e-01   2.6591272e-01   2.7037021e-01   4.0268146e-01   4.2444268e-01   3.6615086e-01   2.3508874e-01   2.1508905e-01   2.8505761e-01   2.0932338e-01   1.2246538e-01   1.7633905e-01   1.6867050e-01   5.3504658e-02  -1.2339317e-01  -6.8380309e-02  -5.8907688e-02  -1.0899817e-01  -1.5607889e-01  -3.1749158e-01  -2.5631330e-01  -1.0458142e-01  -7.6285977e-02  -1.5069844e-01  -1.7939006e-01  -1.2661356e-01  -4.6992171e-02  -3.9831433e-02   7.9664880e-02   1.1654730e-01   1.6528988e-01   1.2051386e-01   2.6795266e-01   2.6844489e-01   2.8370527e-01   3.1729159e-01   3.8335884e-01   3.7238754e-01   2.7305846e-01   2.5550632e-01   1.7221253e-01   1.2729881e-01   1.7943176e-01   1.7423164e-01   9.8307320e-02   3.0661130e-01   7.6522940e-02   1.9653875e-01   2.2558753e-01   1.4586093e-01  -4.0501539e-02   4.0366756e-02   7.8232950e-02   1.9958183e-01   1.5622039e-01   2.9279963e-01   3.6012694e-01   3.0685885e-01   3.3978350e-01   3.1381777e-01   5.2463394e-01   5.3494965e-01   3.2702240e-01   3.7454310e-01   5.7002050e-01   5.2482951e-01   5.5399482e-01   4.6707763e-01   5.1411172e-01   2.5056073e-01   2.6657410e-01   4.0579382e-01   4.8740393e-01   2.2148763e-01   2.3071046e-01   1.9439938e-01   2.0293985e-01   3.6893530e-01   3.6298463e-01   4.7686314e-01   4.4033115e-01   4.4630434e-01   7.0673819e-01   7.3417091e-01   1.0118025e+00   1.3042394e+00   1.6260840e+00   1.7935761e+00   1.7367729e+00   1.7044813e+00   1.6951524e+00   1.5826019e+00   1.3585390e+00   8.3171350e-01   5.0036232e-01   2.5202539e-01  -8.0958892e-02  -3.1725670e-01  -5.9812465e-01  -7.6673266e-01  -8.0642244e-01  -8.5276212e-01  -7.0511529e-01  -7.7610623e-01  -1.0202377e+00  -7.0874540e-01  -8.0966177e-01  -7.8963878e-01  -6.9785523e-01  -7.3953811e-01  -7.8647674e-01  -8.7812588e-01  -9.2697729e-01  -4.8242012e-01   6.3911054e-03   6.0006346e-01   1.1721536e+00   1.1104813e+00   1.1523931e+00   8.0458203e-01   7.0228886e-01   3.6355782e-01  -1.6005595e-01  -6.4750033e-01  -5.5649502e-01  -1.8976298e+00
   1.0000000e+00  -3.6310945e-01  -2.4230408e+00  -3.3892236e+00  -4.5031296e+00  -4.2797109e+00  -3.2047066e+00  -1.9979050e+00  -1.3963867e+00  -1.2976702e+00  -7.2202365e-01  -2.1478947e-01  -2.0596822e-01  -2.5965888e-01  -3.0210647e-01  -2.7077129e-01  -2.5353796e-01  -1.4408279e-01  -2.6361813e-01  -2.0083762e-01  -3.1873712e-01  -2.4441672e-01  -3.3363448e-01  -3.0402921e-01  -3.6921236e-01  -4.1578539e-01  -3.7764378e-01  -4.2396273e-01  -6.3824435e-01  -5.4263757e-01  -4.4409124e-01  -3.9943843e-01  -6.6201309e-01  -6.6552275e-01  -5.5341506e-01  -6.6148340e-01  -6.3634438e-01  -6.4994024e-01  -5.6369650e-01  -6.0027270e-01  -6.0323494e-01  -5.5756204e-01  -5.3413210e-01  -3.4849803e-01  -2.8102901e-01  -2.9526537e-01  -1.7547002e-01  -3.8189480e-02  -8.0075967e-02  -1.1886179e-01   1.6417629e-03  -3.4984757e-02  -9.7175632e-02  -1.4494364e-01  -8.2784071e-02  -1.2748048e-02   3.3900843e-02  -1.3411851e-01  -6.4711069e-02  -1.3391313e-01  -1.4112211e-01  -8.1351063e-02  -3.9569071e-02  -5.6115204e-02  -8.2970410e-02  -2.2545053e-02   5.5712583e-02   4.6482879e-02  -3.2701197e-02   6.5563657e-02   1.2515487e-01   2.1205606e-01   2.8980952e-01   2.1457335e-01   4.2204400e-01   4.6752338e-01   4.7550926e-01   5.1545602e-01   5.7402363e-01   7.0395219e-01   5.3958868e-01   4.8450508e-01   4.4997309e-01   6.1449776e-01   7.3846572e-01   5.4664519e-01   4.3810311e-01   4.7971165e-01   4.0955154e-01   3.9108047e-01   4.5073633e-01   2.9270907e-01   3.7992866e-01   3.7166580e-01   3.1723252e-01   4.4460368e-01   6.3340290e-01   8.8727698e-01   9.4400369e-01   1.1040207e+00   1.3316508e+00   1.6544215e+00   1.9308698e+00   2.2085624e+00   2.1954407e+00   2.1454864e+00   1.9615741e+00   1.8662908e+00   1.4996373e+00   1.2342925e+00   1.0404685e+00   8.6533328e-01   4.2012707e-01  -1.0134393e-01  -1.9857753e-01  -1.9446377e-01  -1.6205464e-01  -2.8773889e-01  -8.9085656e-02  -1.1847070e-01  -2.4154983e-01  -1.9210442e-01  -1.3002930e-01  -1.9901194e-01  -9.2889529e-02  -1.4155018e-01  -1.6479071e-01   9.2324008e-03   4.5613472e-02   4.2667329e-01   1.1304595e+00   1.9134965e+00   1.7649410e+00   1.3873536e+00   9.4778081e-01   2.1203524e-01  -4.5447331e-01  -6.2788802e-01  -1.7873696e-01   6.0328670e-01  -6.5050451e-01
   1.0000000e+00   8.7867181e-02  -9.7521418e-01  -2.2135487e+00  -2.8363388e+00  -3.5327791e+00  -3.4369559e+00  -3.0697078e+00  -1.8585565e+00  -5.8616621e-01  -3.1377999e-01  -8.4969189e-02   4.9412788e-01   6.5261901e-01   4.9415710e-01   5.2932505e-01   3.1231516e-01   4.3458536e-01   6.0390600e-01   5.4201567e-01   3.5531876e-01   4.0878345e-01   3.6123233e-01   3.9260769e-01   3.7306994e-01   3.7629793e-01   5.9055534e-01   4.9077439e-01   3.9454297e-01   3.0134344e-01   2.9749081e-01   3.6512583e-01   3.2568237e-01   2.3245716e-01   2.4860805e-01   1.5629804e-01   1.7248023e-01   2.4428001e-01   1.0225404e-01   1.3904494e-01   1.3652388e-01   1.5847444e-01   1.6692869e-01   9.6728654e-02   2.3607307e-01   3.2853595e-01   2.9854927e-01   2.1185943e-01   3.2227401e-01   3.5653120e-01   3.2500668e-01   2.8739974e-01   2.6236862e-01   3.0060801e-01   3.1040638e-01   3.9508692e-01   2.0334512e-01   2.5021391e-01   2.7102776e-01   1.3223275e-01   2.1805407e-01   1.8384858e-01   2.1695594e-01   2.3338088e-01   2.3441798e-01   2.0609996e-01   2.7174161e-01   2.2846459e-01   3.4440393e-01   3.0346110e-01   1.1425276e-01   2.1781431e-01   3.4999511e-01   4.0767951e-01   3.4556291e-01   2.5397796e-01   4.3055631e-01   4.5908247e-01   4.6594620e-01   4.5876024e-01   3.7381732e-01   4.2004474e-01   4.9957547e-01   4.5471042e-01   5.0358729e-01   2.4454168e-01   2.9543853e-01   3.0406275e-01   3.6154108e-01   3.0211664e-01   3.1494808e-01   2.4782944e-01   4.5617154e-01   5.6732051e-01   5.8393341e-01   5.2351593e-01   4.4193367e-01   7.1152291e-01   8.0006660e-01   8.9249693e-01   1.2103542e+00   1.3099521e+00   1.3978127e+00   1.4651546e+00   1.3991899e+00   1.1259960e+00   7.9361351e-01   6.9545860e-01   5.4384187e-01   3.1206961e-01   1.4623627e-01  -4.3728453e-02  -1.4593500e-01  -3.8387280e-01  -4.6584501e-01  -4.2936732e-01  -5.3911483e-01  -3.9694675e-01  -5.9971450e-01  -7.4463527e-01  -7.6442937e-01  -7.9485643e-01  -8.7838794e-01  -7.7039225e-01  -6.7451442e-01  -8.5811294e-01  -7.3369495e-01  -8.2109075e-01  -6.8994736e-01  -2.5247612e-01   4.8996794e-01   8.8329105e-01   1.1071700e+00   1.1885148e+00   6.7218152e-01  -3.5889477e-01  -2.0773017e+00  -2.6302569e+00  -2.8166544e+00  -2.8866363e+00  -4.8489538e+00
   1.0000000e+00   8.8033877e-01  -1.6729426e+00  -3.5021719e+00  -3.3253789e+00  -2.1920119e+00  -5.2163711e-01   1.1445412e-02   4.2983785e-01   1.3854759e+00   1.5337710e+00   1.5328344e+00   1.5369099e+00   1.4626659e+00   1.4793082e+00   1.4112899e+00   1.4540436e+00   1.3200820e+00   1.2245303e+00   1.3200968e+00   1.1297855e+00   1.0861863e+00   1.0190031e+00   1.1215491e+00   8.9979332e-01   7.4029340e-01   8.0238892e-01   5.0021584e-01   4.2301267e-01   4.3374830e-01   2.8296735e-01   2.2160681e-01   6.2396361e-02  -6.7532375e-02  -4.0796861e-03  -1.3791561e-01  -7.4543776e-02  -9.2579153e-02  -1.3684028e-01  -1.3640920e-01  -3.3183215e-02  -1.3544016e-02   1.3903447e-01   2.4910198e-01   3.8409071e-01   4.3058265e-01   5.4117819e-01   5.6334717e-01   5.5387651e-01   5.7102725e-01   5.2227564e-01   6.1763618e-01   5.2443125e-01   5.8625766e-01   5.1393657e-01   4.6616939e-01   4.8618442e-01   4.8733852e-01   5.3858091e-01   3.9822191e-01   3.9252341e-01   5.2202235e-01   4.0406726e-01   4.3553619e-01   4.8085313e-01   3.7943419e-01   2.8509991e-01   3.7157654e-01   3.9913892e-01   4.2739838e-01   4.5657189e-01   4.9675806e-01   4.4110050e-01   5.3087787e-01   4.6930551e-01   4.0138092e-01   4.4231459e-01   2.9897451e-01   2.4078980e-01   2.6148316e-01   1.4217465e-01   6.4353794e-02  -2.2485528e-02  -5.3969000e-02  -8.2906637e-02  -1.1842422e-01  -1.6730664e-01  -1.5344128e-01  -1.7965728e-01  -2.4482414e-01  -3.0814944e-01  -3.7465141e-01  -4.4870002e-01  -3.3414737e-01  -4.2306851e-01  -4.5682546e-01  -2.8924487e-01  -7.9669745e-02   9.4623176e-02   2.3629421e-01   5.7798383e-01   7.5844081e-01   1.0048246e+00   1.2725436e+00   1.3379348e+00   1.2880999e+00   1.1068109e+00   9.3508316e-01   4.6237632e-01   1.4481243e-01  -5.9478915e-02  -5.4208058e-01  -1.1146793e+00  -1.4356328e+00  -1.4577304e+00  -1.5426999e+00  -1.7068213e+00  -1.7400847e+00  -1.7264249e+00  -1.8885142e+00  -1.8366656e+00  -1.8647206e+00  -1.7805790e+00  -1.8965644e+00  -1.9065539e+00  -1.9429845e+00  -1.9060834e+00  -1.8630103e+00  -1.8961691e+00  -1.6488484e+00  -1.0434343e+00  -2.4001506e-01  -4.0421112e-01  -6.4499344e-01  -3.1006807e-01  -2.3437366e-01  -3.5595420e-01  -4.3602542e-01  -1.6527298e-01   4.1768626e-01  -1.0211823e+00
   1.0000000e+00   1.5221249e+00  -3.9839137e-01  -2.3964298e+00  -3.6005257e+00  -3.3204344e+00  -2.4420969e+00  -1.3489779e+00  -6.1485151e-01  -4.3214370e-01   2.3110397e-01   8.2717132e-01   8.7089677e-01   8.0951597e-01   8.4756971e-01   8.2387431e-01   8.1580713e-01   8.7137950e-01   8.4125107e-01   8.3263680e-01   8.4116606e-01   7.6122509e-01   7.1717463e-01   7.1356535e-01   6.3992068e-01   6.2729894e-01   5.6149188e-01   4.3505129e-01   4.2774803e-01   4.3864866e-01   3.6235437e-01   2.8402138e-01   2.3210131e-01   1.5461339e-01   2.2871394e-01   1.8887672e-01   1.0105839e-01   1.1082235e-01   9.2534680e-02   1.6016549e-01   1.9034325e-01   2.7174082e-01   3.5822266e-01   4.0321608e-01   4.7846403e-01   5.6587465e-01   7.2721613e-01   7.6929547e-01   7.2767028e-01   8.3825022e-01   7.7697532e-01   7.2328277e-01   7.7129290e-01   8.2560156e-01   7.5712753e-01   7.3715453e-01   7.5936558e-01   6.5828314e-01   6.7043187e-01   6.3433742e-01   6.3466188e-01   6.3150853e-01   6.7197223e-01   6.9199532e-01   6.7056807e-01   6.9259865e-01   7.3467054e-01   7.2590941e-01   7.2977998e-01   7.7273703e-01   8.2049959e-01   8.9367626e-01   8.7710004e-01   8.1988700e-01   8.5299419e-01   8.7353572e-01   8.3015756e-01   8.1551606e-01   7.6846069e-01   7.5241140e-01   7.6511104e-01   6.5210522e-01   5.2036011e-01   4.0731635e-01   3.6704205e-01   3.2237954e-01   2.8765975e-01   1.9791691e-01   2.6915442e-01   1.2505813e-01   7.9340021e-02  -3.6536085e-03  -7.2435456e-02  -6.1432078e-02  -1.2285089e-01  -1.1465184e-01  -9.8507492e-02   8.8545972e-02   2.7683311e-01   3.3933710e-01   4.8496083e-01   5.8440832e-01   6.1469104e-01   8.2192001e-01   8.7087031e-01   7.0582630e-01   6.4254219e-01   3.4211469e-01   5.5949725e-02  -1.4094819e-01  -2.9468862e-01  -5.7221349e-01  -7.8000189e-01  -1.1713354e+00  -1.3877857e+00  -1.5062098e+00  -1.4670349e+00  -1.5647493e+00  -1.6235436e+00  -1.6385588e+00  -1.6978233e+00  -1.7520555e+00  -1.7487570e+00  -1.7760254e+00  -1.8668823e+00  -1.7917256e+00  -1.8616215e+00  -1.8945382e+00  -1.9382222e+00  -1.7897580e+00  -1.5678560e+00  -9.8373530e-01  -7.5601026e-01  -6.6149560e-01  -3.0973677e-01  -1.3047560e-01  -3.6611135e-01  -7.7904182e-01  -1.2505719e+00  -8.4732805e-01  -2.1538892e+00
   1.0000000e+00  -6.5791083e-01  -4.5395448e+00  -4.7859791e+00  -4.2921691e+00  -2.7454507e+00  -1.3309250e+00  -8.5115526e-01  -4.6932287e-01   4.9105385e-01   5.5117629e-01   4.5789910e-01   5.3187234e-01   5.8654788e-01   6.0026269e-01   4.7648590e-01   4.5242099e-01   4.6172390e-01   4.4521130e-01   4.4176586e-01   2.8220334e-01   3.2344212e-01   2.7344395e-01   1.1199564e-01   1.7253923e-01   3.4893870e-02   6.2195103e-02   1.0145633e-01  -1.6170592e-02  -1.3920337e-01  -3.0262194e-01  -4.3931184e-01  -3.9590419e-01  -4.8298407e-01  -4.8237802e-01  -4.7308508e-01  -5.5516182e-01  -5.1960192e-01  -5.8726838e-01  -4.8547857e-01  -5.4464799e-01  -4.8303120e-01  -2.0648624e-01  -2.2619162e-01  -2.0380486e-01   4.7765239e-02   1.8602605e-02   1.4533391e-01   1.3000227e-01   1.7401938e-01   2.5528837e-01   1.6137762e-01   1.0662272e-01   7.9776837e-02   4.0491839e-02   8.8932588e-02   1.2023390e-01   1.5800193e-01   1.2747171e-01  -1.1266715e-02   4.4573469e-02   4.3194900e-02  -2.4939453e-03   3.2778975e-02   2.0537727e-01   1.3538075e-03   1.6752449e-01   1.8565210e-01   1.7287316e-01   2.1404775e-01   1.8020251e-01   3.1096766e-01   3.8887317e-01   4.5448107e-01   4.7808939e-01   3.8711536e-01   4.7737388e-01   4.0979385e-01   4.5656040e-01   3.5221435e-01   2.9194407e-01   3.2936235e-01   2.7912667e-01   1.4150559e-01   1.3791669e-01   2.5857796e-01   1.1752769e-01   1.5195506e-01   5.8300133e-02  -3.8771215e-02   3.9917190e-02   1.9386243e-01   1.4780441e-01   2.6838929e-02  -4.0406499e-02   2.5212982e-01   4.7925294e-01   6.4428717e-01   7.5121059e-01   1.0169102e+00   1.2620470e+00   1.5098093e+00   1.9818807e+00   1.8949908e+00   1.6734781e+00   1.7449730e+00   1.4715645e+00   1.2656848e+00   9.3364032e-01   5.6512010e-01   4.8714392e-01  -1.8248796e-01  -5.2312390e-01  -6.8034179e-01  -8.6337018e-01  -8.1983288e-01  -8.4352077e-01  -9.7641981e-01  -1.0708685e+00  -1.0505572e+00  -9.3345309e-01  -1.0097179e+00  -1.0267847e+00  -9.6644070e-01  -1.0745346e+00  -9.4648332e-01  -8.8571614e-01  -8.1810263e-01  -4.9185808e-01   6.2132474e-02   6.5662129e-01   4.8504832e-01   5.8128746e-01   1.1898369e+00   1.3944497e+00   1.3172169e+00   9.8495063e-01   1.5803963e+00   1.6021170e+00   6.3891134e-01  -2.6049467e+00
   1.0000000e+00  -1.8732863e+00  -3.4740679e+00  -3.6644116e+00  -3.7829103e+00  -3.5500898e+00  -2.9387332e+00  -2.0657053e+00  -1.6707446e+00  -1.4031064e+00  -8.5378139e-01  -6.5859772e-01  -6.6728805e-01  -6.5681169e-01  -6.6285690e-01  -6.4073979e-01  -6.2247577e-01  -6.0437827e-01  -5.8923533e-01  -5.7663332e-01  -6.5520284e-01  -5.7304077e-01  -6.3557909e-01  -5.9841230e-01  -6.1877463e-01  -6.7321148e-01  -7.3328419e-01  -7.8238176e-01  -7.6635912e-01  -7.8762844e-01  -8.7137611e-01  -7.4182016e-01  -9.0623942e-01  -8.0115262e-01  -7.9733324e-01  -8.9458125e-01  -8.3696327e-01  -8.0601207e-01  -6.8227009e-01  -6.9047532e-01  -6.2842178e-01  -5.1843328e-01  -5.1607846e-01  -4.5247763e-01  -3.3022647e-01  -2.6101221e-01  -1.3868917e-01  -1.7423343e-01  -1.0877903e-01  -1.2995686e-01  -9.3622474e-02  -7.0636832e-02  -6.2413122e-02   1.9468968e-02   2.1151289e-02   7.5850411e-02   1.0355604e-01   4.4005763e-02   3.3099833e-02   8.9092463e-02   9.3067072e-02   1.7630059e-01   1.6221602e-01   2.0914818e-01   1.7799651e-01   2.1693701e-01   2.5349145e-01   2.9949168e-01   3.1078940e-01   3.8907556e-01   4.0787967e-01   4.2053968e-01   4.7777843e-01   4.5794511e-01   5.6116939e-01   5.4057854e-01   5.5593809e-01   5.5591265e-01   5.4100465e-01   5.5222063e-01   5.7740700e-01   4.4204408e-01   4.6401204e-01   5.1756109e-01   5.0624166e-01   5.5296685e-01   5.1224461e-01   5.1539969e-01   5.3370550e-01   4.7567585e-01   4.7161747e-01   4.8746025e-01   5.0166506e-01   4.7650938e-01   4.8502311e-01   5.7703824e-01   7.2615055e-01   8.9031892e-01   9.9407116e-01   1.1287976e+00   1.3246771e+00   1.4954893e+00   1.7176671e+00   1.7655771e+00   1.7406440e+00   1.7167925e+00   1.5677488e+00   1.4664614e+00   1.3088726e+00   1.1682405e+00   9.2892101e-01   5.9876322e-01   3.4222314e-01   1.3473960e-01   9.7259228e-02   6.3920151e-02   1.4008490e-02   7.7120770e-03   9.9764014e-02   4.6686912e-02   9.3075876e-02   1.0951943e-02   1.1027281e-01   6.9295166e-02   1.0417922e-01   1.4366375e-01   9.2687925e-02   2.2551694e-01   2.3215107e-01   3.3121479e-01   7.7213529e-01   1.1667927e+00   1.1475533e+00   1.2491082e+00   1.3156595e+00   1.1595672e+00   8.4954759e-01   8.4117992e-01   1.0818385e+00   1.2745996e+00  -1.6584227e-01
   1.0000000e+00  -1.3892820e+00  -3.0775953e+00  -3.7701652e+00  -4.3014416e+00  -3.7569409e+00  -2.7648287e+00  -1.9262873e+00  -1.6618890e+00  -8.9962830e-01  -5.7801741e-01  -6.2707539e-01  -4.3805546e-01  -4.6650831e-01  -4.6108225e-01  -4.4432078e-01  -3.1803890e-01  -5.5360107e-01  -6.3372149e-01  -4.9307550e-01  -4.9919959e-01  -4.8409909e-01  -5.0674475e-01  -5.5243140e-01  -5.0124224e-01  -4.4216020e-01  -6.4054793e-01  -7.7198260e-01  -7.2241525e-01  -6.0384395e-01  -5.4887151e-01  -8.4978521e-01  -8.1880855e-01  -7.6610843e-01  -8.0469734e-01  -7.7311342e-01  -9.5847229e-01  -9.1103992e-01  -7.3653806e-01  -7.5351816e-01  -7.1675639e-01  -6.9512507e-01  -6.8783471e-01  -3.3929538e-01  -3.0865157e-01  -4.1386463e-01  -1.7473337e-01  -4.9917177e-02  -9.6127002e-02  -1.4507110e-01  -8.2717762e-02  -1.4185779e-01  -1.0863912e-02   2.1896940e-02  -4.8447764e-02   9.0133905e-02   1.1912345e-01  -1.3597988e-01  -1.8844909e-01  -7.0490633e-02  -5.7155246e-02  -1.5008492e-01  -3.0135734e-02   1.1683175e-01  -1.8215697e-02   5.9899652e-02   1.2068132e-01   2.1842017e-01   2.9942026e-01   3.6434049e-01   2.8371432e-01   1.4268785e-01   3.9534590e-01   4.4150737e-01   4.5400298e-01   5.0115717e-01   6.0306712e-01   6.8039598e-01   5.1892711e-01   5.2860935e-01   5.3377081e-01   4.6753431e-01   5.7477229e-01   6.4739205e-01   3.7990025e-01   3.6308170e-01   4.0969577e-01   4.5622826e-01   4.3636451e-01   3.7938494e-01   4.1358086e-01   4.2424164e-01   4.5743529e-01   4.0916696e-01   2.4835829e-01   3.2879732e-01   5.0178293e-01   6.5875676e-01   9.8463477e-01   1.1670690e+00   1.0729162e+00   1.3062465e+00   1.6385564e+00   1.7350404e+00   2.0545680e+00   1.9311994e+00   1.8641521e+00   1.7661179e+00   1.5627342e+00   1.5107510e+00   1.2786359e+00   9.9994578e-01   7.3570206e-01   4.8490494e-01   1.0220446e-01  -2.4356007e-02  -2.6150591e-03   2.2316196e-03  -9.1190898e-02  -6.0776836e-02  -1.2642418e-01  -5.7033973e-02   8.1341271e-02  -1.6401324e-02  -6.6546237e-02  -4.0957400e-02   5.2514512e-02   7.7033566e-02   1.5732113e-01   2.6191248e-01   6.4765766e-01   1.2376874e+00   1.4197962e+00   1.3951104e+00   1.3902675e+00   9.5676794e-01   6.8228134e-01   4.3273845e-01   5.0208799e-01   1.1336224e+00   5.7909268e-01
   1.0000000e+00  -5.6142675e-01  -3.3477992e+00  -4.2343284e+00  -4.1494859e+00  -3.6876799e+00  -2.7568411e+00  -1.7197782e+00  -1.5160556e+00  -1.0450178e+00  -3.2733682e-01  -1.8961393e-01  -1.7548067e-01  -2.0606934e-01  -2.7083529e-01  -2.5988709e-01  -2.7786916e-01  -2.5397920e-01  -2.9788366e-01  -3.1690294e-01  -3.6547730e-01  -3.2857699e-01  -4.1836427e-01  -3.5152495e-01  -4.7142339e-01  -5.6994906e-01  -4.8264294e-01  -5.7585146e-01  -6.7015722e-01  -7.2227585e-01  -7.4378655e-01  -7.6152807e-01  -8.7280534e-01  -8.3937890e-01  -8.9236611e-01  -9.5799604e-01  -1.0691466e+00  -9.3317845e-01  -9.6160195e-01  -8.5192390e-01  -7.4265127e-01  -6.9757158e-01  -6.1620865e-01  -5.1708983e-01  -4.8225426e-01  -3.9332574e-01  -2.4366309e-01  -1.7190500e-01  -9.3151295e-02  -2.6201864e-02  -8.2512039e-03   2.5282398e-02   1.8280984e-02  -5.6451200e-02   9.1796322e-02   8.9199450e-02   5.7191305e-02   1.3431116e-01   9.6908489e-02   8.4386100e-02   1.0747121e-01   1.7294354e-01   2.4741808e-01   2.6816482e-01   1.7770208e-01   2.5444619e-01   2.3357747e-01   2.7375660e-01   3.7040399e-01   4.0056904e-01   4.0320141e-01   3.4716043e-01   4.6412955e-01   5.0461505e-01   5.7681637e-01   7.0165862e-01   5.0144711e-01   6.3195478e-01   5.6135754e-01   5.4521132e-01   5.7795232e-01   4.8141608e-01   4.7839593e-01   5.2848333e-01   5.6881813e-01   4.8225745e-01   4.1810458e-01   4.3094077e-01   4.6940596e-01   4.1372938e-01   4.1681431e-01   4.1553648e-01   4.4551093e-01   3.4624081e-01   4.3312807e-01   5.5376384e-01   6.1147038e-01   7.1209516e-01   9.9754214e-01   1.1237612e+00   1.2448359e+00   1.4020539e+00   1.6833413e+00   1.9226722e+00   1.8714513e+00   1.8205469e+00   1.6954625e+00   1.4718883e+00   1.3618637e+00   1.1841746e+00   8.2598665e-01   5.8920814e-01   1.3999862e-01  -1.3267611e-01  -1.1057720e-01  -2.6204978e-01  -3.1791256e-01  -2.5549464e-01  -3.3204315e-01  -2.6719220e-01  -2.8139137e-01  -2.8713755e-01  -3.0848134e-01  -3.7841536e-01  -2.6346267e-01  -3.1907566e-01  -3.2794457e-01  -3.1163435e-01  -2.9489183e-01   1.3540170e-03   4.2527585e-01   9.0670472e-01   7.4578953e-01   7.7699181e-01   1.0653658e+00   1.1556194e+00   1.0404916e+00   1.0480810e+00   1.2561786e+00   2.0147122e+00   1.0365541e+00
   1.0000000e+00  -2.5474105e+00  -4.1999437e+00  -4.3954846e+00  -4.2554092e+00  -3.3721811e+00  -2.3004904e+00  -1.4752175e+00  -1.2681987e+00  -6.3292895e-01  -2.5650556e-01  -4.1765576e-01  -3.2813850e-01  -3.7987647e-01  -2.8115996e-01  -1.7651320e-01  -2.4093391e-01  -2.9832348e-01  -2.3356087e-01  -3.6657956e-01  -2.7368872e-01  -2.4611572e-01  -3.2836395e-01  -3.3167148e-01  -4.2558902e-01  -4.1768931e-01  -4.7428424e-01  -5.0205512e-01  -5.6613349e-01  -5.3319582e-01  -5.6648407e-01  -6.7897310e-01  -7.0025095e-01  -5.7946704e-01  -6.9597954e-01  -5.9593914e-01  -6.8785308e-01  -7.1151648e-01  -6.2165757e-01  -5.6932964e-01  -4.9760469e-01  -3.7980257e-01  -3.2406780e-01  -2.4357648e-01  -1.2453030e-01  -6.5830349e-02  -7.2460729e-02  -2.0247717e-03   8.5923074e-02   5.8660380e-02   1.6071855e-01   1.1750762e-01   9.5605619e-02   1.0429201e-01   7.5896591e-02   4.2386589e-02   7.8914035e-02   1.2886846e-01   1.2585437e-01   1.5664358e-01   2.5470379e-01   2.4906561e-01   2.1383622e-01   1.8447833e-01   1.9071131e-01   2.3407262e-01   3.1238498e-01   3.9321164e-01   4.4110252e-01   4.5663152e-01   4.4620709e-01   4.6398756e-01   5.7499393e-01   5.7341242e-01   5.5389733e-01   6.2309313e-01   6.3481667e-01   5.0327744e-01   5.7397867e-01   6.4020256e-01   6.1744544e-01   5.7336137e-01   5.6943473e-01   5.4565119e-01   5.0270211e-01   4.3180760e-01   4.2090517e-01   4.8323230e-01   4.1525044e-01   4.7231075e-01   4.8129979e-01   4.5970869e-01   4.9356968e-01   4.3946868e-01   4.3370405e-01   5.2160207e-01   6.7354695e-01   8.7466088e-01   9.4155465e-01   1.1276604e+00   1.1651571e+00   1.3846718e+00   1.6782099e+00   1.7141889e+00   1.8195933e+00   1.8826697e+00   1.6838367e+00   1.4156502e+00   1.2776649e+00   1.0719390e+00   7.6777770e-01   4.6821692e-01   1.2060043e-01  -1.4507676e-01  -2.1378366e-01  -9.1007544e-02  -1.0791427e-01  -1.4479261e-01  -1.9774882e-01  -2.5653834e-01  -2.2997800e-01  -2.3185034e-01  -2.1513558e-01  -1.8158780e-01  -1.8390054e-01  -1.0517842e-01  -1.5392083e-01  -1.4616191e-01  -1.0066859e-01   2.0886525e-01   6.6952215e-01   8.0988938e-01   7.7949065e-01   8.8080674e-01   8.7947083e-01   8.6233313e-01   6.2583642e-01   8.8260065e-01   8.9005855e-01  -2.3088674e-01  -2.5884859e+00
   1.0000000e+00  -6.0284206e+00  -6.2808752e+00  -3.9898275e+00  -3.3618834e+00  -2.5320203e+00  -2.1404416e+00  -1.7479337e+00  -9.0006013e-01  -2.4874649e-01  -1.1910320e-01  -6.7825359e-02   1.4755159e-02   6.2444243e-02   6.5831807e-02   1.3052587e-01   1.4033791e-01   1.7447265e-01   2.4860724e-01   2.8316377e-01   3.1755662e-01   3.6797760e-01   3.6086975e-01   4.1797527e-01   4.2755467e-01   5.3240157e-01   5.5858154e-01   6.0425546e-01   6.3894360e-01   6.6301998e-01   7.4542559e-01   7.6759372e-01   8.9726525e-01   8.8487109e-01   8.9178463e-01   9.3641828e-01   9.3148698e-01   9.4522608e-01   8.9881651e-01   8.9465840e-01   8.0625388e-01   6.7462781e-01   6.0618919e-01   4.8348316e-01   3.9744239e-01   2.6732402e-01   1.4477224e-01   1.1973874e-01   2.3406470e-02  -1.5386570e-02  -1.1179563e-01  -1.1219643e-01  -1.6706602e-01  -1.5830346e-01  -1.7512858e-01  -2.0655987e-01  -1.4771556e-01  -1.7496942e-01  -1.3124691e-01  -1.0500409e-01  -9.9456517e-02  -6.5466490e-02  -2.7564589e-02  -9.9209713e-03  -2.3657232e-03   7.6596098e-02   9.8492622e-02   1.3274847e-01   1.6737065e-01   1.9838024e-01   1.7949490e-01   1.7352432e-01   2.4893536e-01   2.4427399e-01   2.5428800e-01   2.9369883e-01   2.3767334e-01   2.2324273e-01   2.3165659e-01   1.8618473e-01   2.0183509e-01   1.6735588e-01   1.8462479e-01   1.5538948e-01   6.7121873e-02   1.0293275e-01   5.3193233e-02   4.5677516e-02   5.9209619e-02   4.4685466e-02   2.7759841e-02   1.6124620e-02  -4.8437982e-03  -3.6502915e-03  -1.4642498e-02  -4.0716812e-03   2.7890914e-03   4.3635361e-03   1.6552825e-02   7.1318080e-02   1.9123999e-01   2.8474086e-01   3.8851497e-01   4.1029812e-01   5.3286900e-01   6.4216398e-01   7.2931206e-01   6.9882086e-01   6.4749552e-01   5.7666313e-01   4.5742402e-01   4.1687913e-01   3.0573173e-01   1.9984045e-01   6.7766640e-02  -9.6218645e-02  -2.4328035e-01  -2.8483185e-01  -3.0044164e-01  -3.1672898e-01  -2.7582617e-01  -2.8984084e-01  -2.7076471e-01  -2.7165724e-01  -3.2266775e-01  -3.1885939e-01  -2.9934599e-01  -3.0609332e-01  -2.9725833e-01  -3.0719200e-01  -2.1259432e-01  -1.1998203e-01   1.1002976e-01   3.5223080e-01   3.3714861e-01   6.0100177e-01   8.1192056e-01   7.9984891e-01   6.1417416e-01   4.5731798e-01   5.6108956e-01
   1.0000000e+00  -1.4338433e-01  -2.3545043e+00  -3.3801896e+00  -3.7601306e+00  -3.6805913e+00  -3.5037486e+00  -2.8105942e+00  -1.8377667e+00  -1.3981506e+00  -1.3238586e+00  -7.3227507e-01  -4.7804046e-01  -4.5702184e-01  -4.0721888e-01  -3.9162505e-01  -3.8875540e-01  -3.7789285e-01  -4.6019050e-01  -4.4974876e-01  -5.1118509e-01  -4.1351528e-01  -4.5102087e-01  -4.7692620e-01  -4.0532025e-01  -4.7743377e-01  -5.0588119e-01  -4.3461876e-01  -4.7309903e-01  -5.1695303e-01  -5.4733964e-01  -6.4112422e-01  -5.7826288e-01  -6.1112706e-01  -6.8247335e-01  -6.6218231e-01  -6.8480475e-01  -6.0869595e-01  -6.5048171e-01  -5.6727956e-01  -4.5178339e-01  -4.2063252e-01  -3.7410590e-01  -3.7086439e-01  -3.6225251e-01  -2.9062743e-01  -2.4269197e-01  -2.1821513e-01  -1.8696039e-01  -9.8996789e-02  -1.9083766e-01  -6.9889805e-02  -8.6617305e-02  -7.1924512e-02  -6.9449738e-02  -6.5374838e-02  -7.6728647e-02  -9.2247586e-02  -2.6342814e-02  -1.1050907e-01  -2.8621281e-02  -7.8969795e-03  -3.4544459e-02   5.6358430e-02  -1.8866183e-02   1.1247586e-01   8.0954191e-02   7.9630007e-02   1.5888173e-01   1.5152774e-01   1.8029367e-01   2.2607604e-01   2.1106759e-01   3.2253155e-01   3.7065142e-01   4.0723380e-01   3.8955491e-01   3.4858135e-01   4.0434577e-01   4.2875729e-01   4.0579208e-01   4.2661146e-01   3.9779271e-01   4.0807410e-01   4.0022923e-01   3.9797563e-01   3.7679322e-01   4.1553887e-01   3.6784510e-01   3.5748177e-01   2.2675820e-01   3.0173548e-01   3.5351903e-01   4.4676483e-01   5.4153930e-01   6.5189095e-01   7.6790361e-01   9.0941754e-01   1.2320509e+00   1.3953892e+00   1.6706737e+00   1.9723359e+00   2.1248540e+00   2.0940880e+00   1.9424987e+00   1.7301917e+00   1.6658573e+00   1.3609888e+00   9.5264828e-01   6.4091107e-01   3.4394956e-01   1.1175572e-01  -2.1582147e-02  -7.6470207e-02  -9.7627557e-02  -8.6217713e-02  -9.9992933e-02  -6.9386605e-02  -6.5285048e-02  -5.4103070e-03  -1.5118798e-02  -3.0538907e-02   4.1022895e-02  -8.4247607e-02   4.4658912e-02   8.2644209e-02   3.7578735e-02   1.3922468e-01   3.4877581e-01   8.0913580e-01   1.2225276e+00   1.3599606e+00   1.6391625e+00   1.7446887e+00   1.5551593e+00   1.2344932e+00   8.4142523e-01   1.1490882e+00   1.4102123e+00   4.4364502e-01  -1.5699093e+00
   1.0000000e+00   4.8356513e-01  -2.1257767e+00  -3.9593871e+00  -4.5488827e+00  -4.1406583e+00  -2.8375835e+00  -1.9507857e+00  -1.6682789e+00  -8.0547668e-01  -3.7189517e-01  -4.5823562e-01  -4.1865405e-01  -4.2675634e-01  -3.8134419e-01  -4.5818070e-01  -3.8341312e-01  -4.3179395e-01  -4.8818203e-01  -5.1320861e-01  -5.3394250e-01  -5.4232616e-01  -4.8426311e-01  -5.3861577e-01  -5.7182196e-01  -6.2864663e-01  -6.2717738e-01  -7.3206266e-01  -7.2985919e-01  -8.3028136e-01  -8.8990819e-01  -9.5742086e-01  -1.0247258e+00  -1.0794896e+00  -1.0613850e+00  -1.0744844e+00  -1.0504400e+00  -1.0896010e+00  -9.8809408e-01  -9.3528275e-01  -8.8727127e-01  -7.4496531e-01  -7.2456175e-01  -5.2369002e-01  -5.1156620e-01  -4.7131306e-01  -3.3753031e-01  -1.8945658e-01  -1.5645502e-01  -5.7242995e-02  -7.8369744e-02   1.3392307e-02  -1.0610059e-02   6.4719487e-02  -1.6702546e-02   1.0357553e-01   1.0678038e-01   2.0089343e-01   2.7085538e-01   2.5276787e-01   2.1909767e-01   2.1049063e-01   3.9706474e-01   3.4246544e-01   4.5909165e-01   5.2272585e-01   5.1970710e-01   5.8087723e-01   6.5906683e-01   6.5952750e-01   6.4677100e-01   8.1005102e-01   6.9735032e-01   7.6132364e-01   8.0885339e-01   7.6590967e-01   7.3884223e-01   7.3775799e-01   6.9810844e-01   6.5468699e-01   6.8254522e-01   5.4484173e-01   6.0321562e-01   5.8006575e-01   6.1577651e-01   6.0390823e-01   5.0499522e-01   5.2431409e-01   5.5342422e-01   3.7799673e-01   4.2656718e-01   4.2064071e-01   3.7636297e-01   4.3892444e-01   4.2137267e-01   3.5710891e-01   3.5220420e-01   2.8624557e-01   4.2320312e-01   5.0068988e-01   6.6725486e-01   8.6465341e-01   1.2093598e+00   1.3393044e+00   1.4275948e+00   1.6092997e+00   1.7387181e+00   1.6672653e+00   1.6896218e+00   1.5722648e+00   1.3195966e+00   1.2079405e+00   8.5687006e-01   5.7336089e-01   2.1797318e-01  -8.3867032e-02  -1.7647635e-01  -1.3869435e-01  -9.9456411e-02  -1.1259655e-01  -1.1641743e-01  -1.9496744e-01  -1.5174883e-01  -1.9890250e-01  -1.7695489e-01  -1.5267081e-01  -1.7966133e-01  -1.2168577e-01  -9.9648266e-02  -1.4366540e-01   1.2613534e-01   4.9884459e-01   1.1029491e+00   1.2032060e+00   9.8944457e-01   9.4631627e-01   8.6593936e-01   8.1303515e-01   6.7497204e-01   1.4693229e+00  -3.6495244e-02
   1.0000000e+00  -8.7916286e-01  -3.3880475e+00  -3.9044576e+00  -4.1268604e+00  -3.8277188e+00  -2.6375645e+00  -1.9929159e+00  -1.8535330e+00  -1.2555223e+00  -5.8811460e-01  -6.0469116e-01  -5.7167784e-01  -6.1695176e-01  -5.7922596e-01  -5.1258519e-01  -6.2011860e-01  -5.6294509e-01  -5.6147075e-01  -5.7241478e-01  -5.5244568e-01  -5.2407786e-01  -5.5129359e-01  -5.3522841e-01  -6.3830454e-01  -6.3076990e-01  -6.3354326e-01  -7.2217309e-01  -6.8429766e-01  -7.6410537e-01  -7.5778799e-01  -8.2805377e-01  -7.8216335e-01  -8.4996100e-01  -8.8425133e-01  -8.5959961e-01  -8.4586363e-01  -8.7711888e-01  -8.1287118e-01  -7.5079360e-01  -7.3199549e-01  -6.5354326e-01  -5.8895510e-01  -4.7435083e-01  -4.6241404e-01  -3.2481345e-01  -2.3583045e-01  -2.4945526e-01  -1.2795351e-01  -1.2581774e-01  -1.2059905e-01  -5.5361516e-02   2.2767013e-02   4.5615321e-02   4.6877698e-02   9.5060921e-02   1.1543806e-01   1.1138746e-01   1.1376613e-01   1.8863250e-01   2.0979128e-01   2.5355188e-01   2.9481579e-01   3.1104113e-01   3.5901241e-01   3.6084210e-01   4.0633243e-01   4.5715843e-01   4.2892471e-01   4.4509371e-01   5.8791759e-01   5.5567315e-01   6.2086433e-01   6.0540875e-01   6.8119432e-01   7.3225826e-01   7.1734189e-01   6.2438380e-01   6.7545373e-01   6.8957175e-01   5.7608134e-01   6.0644190e-01   5.6060936e-01   5.5865933e-01   6.1358630e-01   5.7220166e-01   5.2169285e-01   5.1570246e-01   5.2204980e-01   4.4028149e-01   4.3479004e-01   4.5681842e-01   4.3215474e-01   4.4434598e-01   4.7050326e-01   4.2028998e-01   4.2453024e-01   5.0577069e-01   4.9987329e-01   6.6364314e-01   8.9945110e-01   1.1089729e+00   1.2015408e+00   1.4220666e+00   1.5551089e+00   1.7398958e+00   1.8481794e+00   1.8410360e+00   1.8391419e+00   1.5544089e+00   1.4681445e+00   1.2465020e+00   9.5065590e-01   6.9043140e-01   2.5787661e-01   2.2660918e-02   3.7550245e-03  -7.0860548e-02  -2.4807520e-02  -4.0302939e-04  -1.0643911e-01  -4.6663337e-02  -6.0879000e-02   2.4493129e-02  -3.2076071e-02  -2.1488343e-02   2.7779045e-02  -2.0889556e-02   4.1939083e-02   8.5098236e-02   1.9101639e-01   6.0162782e-01   1.2409178e+00   1.3064701e+00   1.2171722e+00   1.0935793e+00   5.3837417e-01   3.0040177e-01   2.5567209e-01   1.1088154e+00  -3.1097287e-03
   1.0000000e+00   1.2650197e+00  -8.7320577e-01  -2.4011117e+00  -3.2884467e+00  -3.7112888e+00  -3.3421734e+00  -2.3066091e+00  -1.4908884e+00  -1.9388219e+00  -1.3751892e+00  -3.9471674e-01   4.0466290e-02  -3.8213396e-02  -8.6830779e-01  -8.5068245e-01  -5.5944141e-01  -1.1820603e-01  -1.6740934e-01  -1.0811965e+00  -6.0955323e-01  -2.3028672e-01  -7.0886025e-01  -8.2364573e-01  -1.0187844e+00  -6.8786586e-01  -4.8551409e-01  -4.5935666e-01  -3.5954681e-01  -1.0662306e+00  -1.2423315e+00  -9.3106634e-01  -8.7926114e-01  -7.0823104e-01  -1.0688662e+00  -1.3597415e+00  -9.1127158e-01  -6.6846535e-01  -1.1090935e+00  -1.3288599e+00  -9.3699732e-01  -6.2887261e-01  -9.2609859e-01  -9.6277689e-01  -6.3302632e-01  -6.0020744e-01  -4.3202371e-01  -2.1733071e-01  -9.4101488e-02  -8.9792968e-02  -2.9100787e-01  -3.1477225e-01   1.9100544e-02   9.8510863e-02   1.6562514e-01  -3.5656237e-03  -9.5810354e-02   3.6733241e-02   6.7066666e-02  -2.6533679e-02  -1.6798634e-01   4.6976534e-01   3.4354822e-01  -2.1115371e-02   3.1342777e-01   5.9815585e-01   1.9536219e-01  -2.1168814e-01   2.6412705e-01   4.8115650e-01   4.0524666e-01   5.0606088e-01   5.4882380e-01   6.5358123e-01   4.4921106e-01   2.5491503e-01   2.4494726e-01   2.6344148e-01   5.4767559e-01   6.8594880e-01   3.7056516e-01   4.3097822e-01   4.4691805e-01   6.4726684e-01   4.5252445e-01   2.9523451e-02   7.4565736e-01   3.2421595e-01   2.0239778e-01   4.8728012e-01   3.1005120e-01   2.1371848e-01   3.0978920e-01   3.8030805e-01   5.3149838e-01   6.1523877e-01   3.5027939e-01   2.9375232e-01   3.8517117e-01   6.6922685e-01   8.4093670e-01   9.1271347e-01   9.2443496e-01   1.4516356e+00   1.7018356e+00   1.3257712e+00   1.7479178e+00   2.1811938e+00   1.4240412e+00   9.3055691e-01   9.1158071e-01   8.4872601e-01   1.0423527e+00   8.2507324e-01   1.0611307e-01  -3.3471112e-01  -2.2354035e-01   1.8602089e-02   4.9691439e-02  -1.6307471e-01  -4.5391635e-01  -2.4666130e-01   1.4145261e-01   1.7411040e-01   2.0511962e-01  -2.4110813e-02  -3.6634504e-01  -1.4511728e-02   1.7802269e-01   3.4394615e-01  -1.5587782e-03   2.3670398e-01   1.1208906e+00   3.7095576e-01   6.7186014e-01   1.7093235e+00   1.9078822e+00   1.8803185e+00   1.7345907e+00   2.6961484e+00   2.2160986e+00
   1.0000000e+00   1.1816985e+00   5.8666154e-01  -1.3600329e+00  -2.6354304e+00  -3.6306300e+00  -4.2106994e+00  -3.2930131e+00  -2.3255317e+00  -1.9911273e+00  -1.2560908e+00  -2.9393885e-01  -1.4288672e-01  -2.7547202e-01  -2.7056712e-01  -1.8942874e-01  -1.4850913e-01  -1.2510490e-01  -1.3277855e-01  -3.0492039e-01  -2.8165428e-01  -2.7118512e-01  -2.7713324e-01  -4.7903289e-01  -4.1694205e-01  -4.9633798e-01  -4.3184205e-01  -6.5130038e-01  -7.0904221e-01  -6.3819011e-01  -7.5602134e-01  -8.5173747e-01  -9.2824157e-01  -9.4105451e-01  -9.9295002e-01  -1.0401219e+00  -1.0916410e+00  -1.1277291e+00  -1.1212991e+00  -1.1705321e+00  -1.0722393e+00  -1.1059237e+00  -1.0299145e+00  -9.2698000e-01  -6.9579593e-01  -6.1223420e-01  -5.2525228e-01  -5.1149852e-01  -2.8024939e-01  -2.7403889e-01  -1.9932562e-01  -4.7723490e-02  -9.8528294e-02  -1.3115406e-01  -4.6893530e-02  -2.5345290e-02  -4.7677007e-02   9.3237044e-04   1.4168126e-01   6.4475444e-02   3.6509059e-02   1.7546976e-01   1.0692517e-01   2.2671562e-01   1.3002192e-01   2.5307962e-01   3.3116720e-01   3.1340990e-01   4.2584343e-01   4.4751671e-01   5.7770571e-01   5.6888256e-01   5.6643949e-01   6.4829697e-01   6.5837252e-01   6.3967358e-01   6.7727043e-01   6.2673720e-01   5.0786421e-01   5.2809873e-01   5.0500424e-01   5.2193346e-01   4.5532200e-01   4.8900180e-01   5.1199421e-01   5.1693196e-01   4.5448110e-01   4.0316602e-01   2.8932225e-01   3.0912119e-01   3.5310116e-01   3.1679181e-01   3.4130125e-01   2.7534429e-01   2.7924662e-01   3.2223888e-01   2.4113179e-01   2.8886419e-01   2.5236140e-01   1.4283185e-01   3.6174431e-01   4.1814904e-01   6.0151174e-01   8.3102162e-01   1.1175722e+00   1.3154785e+00   1.2791188e+00   1.7109680e+00   2.1375097e+00   2.3892268e+00   2.3251965e+00   2.2443728e+00   2.0206043e+00   1.8596129e+00   1.4245680e+00   1.0139349e+00   4.7549402e-01  -1.1535298e-01  -3.6178054e-01  -3.1918512e-01  -3.6761357e-01  -3.2210881e-01  -2.7271242e-01  -3.8782089e-01  -1.6875785e-01  -3.2418915e-01  -3.5536323e-01  -2.3543284e-01  -2.1849301e-01  -1.3075895e-01  -1.9414665e-01  -1.7393045e-01   1.1746276e-01   9.0993373e-01   1.1166310e+00   1.0616099e+00   1.4402126e+00   1.0923131e+00   7.8152507e-01   2.3679120e-01   8.6506691e-01
   1.0000000e+00  -1.7409158e+00  -3.9723705e+00  -4.7522009e+00  -4.8127921e+00  -3.8335827e+00  -2.5470301e+00  -1.6365111e+00  -1.4170677e+00  -5.6228164e-01  -3.6487081e-01  -3.6017106e-01  -2.9970459e-01  -3.5761058e-01  -3.1320971e-01  -3.5140768e-01  -3.2862049e-01  -4.2859998e-01  -4.1369410e-01  -3.2157887e-01  -3.4942836e-01  -3.7948471e-01  -3.7051147e-01  -4.5259680e-01  -5.1067117e-01  -4.9970208e-01  -4.3738882e-01  -5.4852795e-01  -6.4695874e-01  -5.9442681e-01  -6.6825255e-01  -7.0309031e-01  -7.2946008e-01  -7.5341784e-01  -6.5376573e-01  -7.5685088e-01  -7.0316055e-01  -7.4411996e-01  -7.3308276e-01  -6.8117162e-01  -7.1310655e-01  -6.3275721e-01  -5.9793712e-01  -3.4542522e-01  -2.0466606e-01  -1.6304835e-01  -1.2232817e-01  -1.2164185e-01  -6.9409630e-02  -9.9465233e-02   6.1767598e-02   4.0722662e-02  -4.6297666e-03   2.4552489e-02  -2.4284220e-02   1.2854274e-01   7.0527315e-02   2.4807849e-02   1.9812233e-02   1.2504632e-02   1.8710334e-01   1.0294081e-01   1.1712294e-01   2.2245306e-01   2.8614828e-01   3.2272811e-01   3.1904342e-01   4.0989426e-01   4.0069859e-01   3.9370861e-01   5.7323819e-01   5.2518980e-01   6.0981056e-01   6.1433850e-01   5.9542425e-01   7.1678405e-01   6.1691739e-01   6.9807687e-01   6.8644054e-01   6.2351164e-01   6.2494280e-01   5.1600025e-01   5.9342522e-01   5.6377608e-01   5.4409332e-01   5.2827754e-01   4.3370497e-01   5.9141224e-01   4.1827283e-01   4.6377289e-01   5.4326724e-01   4.8219128e-01   3.4213197e-01   3.8503842e-01   4.5163177e-01   4.8996970e-01   3.8234120e-01   5.2609459e-01   5.2804445e-01   5.8281894e-01   6.6083762e-01   8.3480509e-01   8.2905506e-01   9.2114647e-01   1.2552254e+00   1.4544488e+00   1.2800769e+00   1.0164367e+00   7.4331826e-01   7.5179325e-01   6.7252756e-01   6.7967099e-01   7.6906865e-01   5.5771614e-01   2.7659574e-01   8.3075093e-02  -7.4888419e-03  -9.6753723e-02  -9.9433674e-02  -1.0700831e-01  -1.6031511e-01  -8.3189654e-02  -7.4344868e-02  -2.0365784e-02   8.5439156e-02  -1.9965854e-02  -5.8812278e-03   5.7274724e-02   4.7452002e-02   3.5841822e-01   1.0734864e+00   1.5525822e+00   1.3220279e+00   1.2187401e+00   1.1883795e+00   1.0887470e+00   7.2518118e-01   9.9193479e-01   1.5361873e+00   1.5243237e+00  -4.4825406e-01
   1.0000000e+00  -3.4719809e-01  -1.8457310e+00  -2.6987746e+00  -3.6833285e+00  -4.1419828e+00  -4.0832637e+00  -3.2477606e+00  -1.8285019e+00  -1.4147084e+00  -1.1489789e+00  -2.7467281e-01  -1.0730206e-01  -1.6487173e-01  -2.0999420e-01  -2.0239484e-01  -3.0903296e-01  -2.5318486e-01  -1.9299914e-01  -2.1890788e-01  -3.5245964e-01  -3.4379946e-01  -2.7480786e-01  -3.7578462e-01  -3.0387793e-01  -2.9245405e-01  -3.3778819e-01  -2.6423611e-01  -3.9762016e-01  -5.1667599e-01  -3.8994504e-01  -3.7968391e-01  -6.0147303e-01  -6.1821035e-01  -7.2999729e-01  -4.9086702e-01  -3.8657743e-01  -4.7468947e-01  -5.3056313e-01  -4.1138495e-01  -4.6598339e-01  -3.2827044e-01  -2.0629056e-01  -2.1689331e-01  -1.2497222e-01   7.5626003e-04  -8.8348455e-02  -7.0181426e-03  -6.9905866e-02  -1.0099938e-01   4.8056732e-02   1.7002546e-01   6.9851717e-02   1.1169117e-01   2.3661366e-01   2.3997063e-02  -8.2475217e-02  -2.2813922e-01  -5.6267459e-02   9.4189563e-02   1.8133149e-01   1.2151182e-01  -1.8429799e-02   3.7551907e-02   1.8918454e-01   1.6100318e-01   8.1238633e-02   1.4234988e-01   3.7141517e-01   3.3005485e-01   3.4202467e-01   4.4547629e-01   4.0352342e-01   2.9689162e-01   3.1145682e-01   4.7913177e-01   5.1850603e-01   4.8371023e-01   4.7834657e-01   4.7284071e-01   4.4805298e-01   2.7226486e-01   2.9867908e-01   3.8523337e-01   4.1667763e-01   4.0254688e-01   2.6642384e-01   3.0707531e-01   4.4745653e-01   4.0413284e-01   3.0024046e-01   3.5886395e-01   3.8575362e-01   5.4996365e-01   4.8391768e-01   3.7327446e-01   9.4130824e-02   3.6222098e-01   6.8665702e-01   1.0335784e+00   1.1347080e+00   1.1207148e+00   1.5049835e+00   1.7652554e+00   2.0214394e+00   2.0550672e+00   2.0308536e+00   1.9377249e+00   1.7635840e+00   1.6402918e+00   1.4735437e+00   1.2417983e+00   6.9186591e-01   6.2205094e-02  -1.1570332e-01  -2.1415476e-01  -2.2912839e-01  -2.2157432e-01  -1.7836154e-01  -3.2876689e-01  -1.9684927e-01  -1.6839488e-02  -7.6877933e-02  -1.6861644e-01  -3.0175914e-02  -2.9152980e-02  -1.1710110e-01  -3.2760710e-02  -8.4790261e-02   1.1891661e-01   6.7331765e-01   1.6567804e+00   2.0169858e+00   1.7475505e+00   1.4134743e+00   5.3772339e-01  -6.1161910e-01  -1.4683896e+00  -1.2318809e+00  -2.7902321e-01  -1.0164154e+00
   1.0000000e+00  -5.2375393e-01  -2.3582850e+00  -3.5072853e+00  -3.9578438e+00  -3.8858828e+00  -3.5627566e+00  -2.8522886e+00  -1.8376238e+00  -1.2715695e+00  -9.6407159e-01  -3.2852744e-01  -4.1983290e-02  -1.6524878e-01  -7.6555570e-02   7.9482268e-02   3.5819143e-02  -1.5064086e-01  -9.5023570e-02   9.9248613e-02   1.0409304e-01   1.8665105e-01   7.8890440e-02   1.0287492e-01   2.9211372e-01   9.7407706e-02   2.2712899e-01   2.9770510e-01   2.0475444e-01   9.5841992e-02   1.8754492e-01   3.1396996e-01   1.6940142e-01   1.7252749e-01   2.0665742e-01   2.4610034e-01   2.9472907e-01   2.9328731e-01   2.8517129e-01   2.5368299e-01   3.8000673e-01   4.8079494e-01   5.7134219e-01   3.2752502e-01   2.8322991e-01   4.4644534e-01   4.2176747e-01   5.1840796e-01   5.3084313e-01   5.2435304e-01   5.7620794e-01   5.3434315e-01   4.2141301e-01   3.5802914e-01   4.8350899e-01   4.7687192e-01   3.9527501e-01   2.5844560e-01   3.4877540e-01   2.4100029e-01   1.9893914e-01   2.1220114e-01   3.4021644e-01   1.8439737e-01   1.7690955e-01   3.7007787e-01   1.7184905e-01   1.8393899e-01   1.9649565e-01   1.7221200e-01   2.2518705e-01   2.9435138e-01   3.7654590e-01   2.9891062e-01   2.9613560e-01   3.6667658e-01   3.8857942e-01   5.1030857e-01   5.0496597e-01   3.8065956e-01   4.0811720e-01   5.5222646e-01   4.0759307e-01   2.9786704e-01   3.3862584e-01   3.4037215e-01   4.1927251e-01   3.1776582e-01   1.5193020e-01   9.7391928e-02   1.4681500e-01   2.5162516e-01   1.8270577e-01   1.6603452e-01   3.0740351e-01   4.7815118e-01   6.6168949e-01   8.6349514e-01   1.1097665e+00   1.3383006e+00   1.3694187e+00   1.5653604e+00   1.9193669e+00   1.8541632e+00   1.7989519e+00   1.7343465e+00   1.5673075e+00   1.2941671e+00   8.2968026e-01   6.9064316e-01   3.7149771e-01   1.5951423e-02  -2.8169831e-01  -4.7351053e-01  -5.2287601e-01  -6.4349259e-01  -7.2286335e-01  -7.5474901e-01  -6.6401804e-01  -6.3083229e-01  -8.1166433e-01  -7.3140500e-01  -7.3662322e-01  -7.5910379e-01  -6.2552229e-01  -5.7034068e-01  -6.3147396e-01  -8.0497114e-01  -6.1231271e-01  -1.9761912e-01   5.7318660e-01   1.1868420e+00   1.1892014e+00   7.8107930e-01  -1.8191314e-01  -1.1014871e+00  -1.7973405e+00  -1.8370516e+00  -1.2707500e+00  -1.0133844e+00  -2.3751973e+00
   1.0000000e+00   2.2610523e+00   5.2462855e-02  -2.2768373e+00  -3.9581639e+00  -4.8218160e+00  -4.4735229e+00  -3.5431038e+00  -2.1147357e+00  -1.1963079e+00  -9.2933860e-01  -1.9890168e-01   5.0333481e-01   6.2018186e-01   6.1447105e-01   6.1302452e-01   5.2749574e-01   5.7886947e-01   5.8191519e-01   5.1160609e-01   5.4349574e-01   4.5221276e-01   2.9294438e-01   3.0511662e-01   3.3541926e-01   2.7441327e-01   2.8121288e-01   1.4882647e-01   1.8779741e-01  -2.3612020e-02  -3.0979324e-02  -6.2653652e-02  -9.7523369e-02  -5.6202341e-02  -1.7615631e-01  -2.7963692e-01  -2.9077467e-01  -3.6835642e-01  -3.0924539e-01  -3.1713252e-01  -3.7076546e-01  -2.8417478e-01  -1.8851743e-01  -1.5223468e-01  -4.5641958e-02   1.7140374e-02   1.2106202e-01   1.8356546e-01   1.7986870e-01   2.7679318e-01   3.4505846e-01   3.3592504e-01   2.7911366e-01   3.5691116e-01   1.9207678e-01   2.7186285e-01   2.9390490e-01   2.6840449e-01   3.5019999e-01   2.0601359e-01   1.6356210e-01   1.9177307e-01   8.2497391e-02   1.8755469e-01   1.7977732e-01   1.7972580e-01   3.0405518e-01   3.5852309e-01   3.9856712e-01   4.6909855e-01   4.5698470e-01   5.2771023e-01   4.3228790e-01   4.9108236e-01   5.8736044e-01   5.7411595e-01   5.6482010e-01   5.5876005e-01   4.5194987e-01   4.2980882e-01   4.1021369e-01   3.9764777e-01   4.3514173e-01   3.1099533e-01   3.0942134e-01   2.1407526e-01   2.5402280e-01   9.1675515e-02   1.0620000e-01   1.5702461e-01   4.6189045e-02   1.1492023e-01  -1.2945561e-03  -1.5451987e-02   1.6975037e-01   3.0357391e-01   4.1400471e-01   6.7085901e-01   7.9588755e-01   9.5696207e-01   1.0705229e+00   1.2760867e+00   1.5443990e+00   1.6640926e+00   1.5357091e+00   1.4503088e+00   1.4126458e+00   1.0968938e+00   8.7516310e-01   6.8403438e-01   2.6908164e-01  -1.9966310e-01  -7.1443109e-01  -9.2966204e-01  -9.5039377e-01  -1.0720621e+00  -9.7961231e-01  -1.0203987e+00  -1.0060100e+00  -1.0138165e+00  -1.0630875e+00  -8.7412938e-01  -8.5252150e-01  -9.8986727e-01  -9.4955718e-01  -8.1342074e-01  -1.0122948e+00  -9.4017607e-01  -7.0430860e-01  -2.5755588e-01   3.5751874e-01   4.4849222e-01   4.9652534e-01   6.3296223e-01   4.5764453e-01   3.1882321e-01   2.7151254e-01   6.9448021e-01   8.5251763e-01   3.2447528e-01  -1.9201726e+00
   1.0000000e+00  -1.2593190e+00  -3.1203508e+00  -3.7185637e+00  -3.9197994e+00  -3.6870622e+00  -3.2857052e+00  -2.4276223e+00  -1.6843713e+00  -1.5233215e+00  -1.1163885e+00  -6.8314764e-01  -6.3024708e-01  -5.4456857e-01  -6.1311056e-01  -6.0205925e-01  -6.1022365e-01  -6.0799062e-01  -5.8439773e-01  -5.5734500e-01  -5.3131969e-01  -5.2214416e-01  -5.8896446e-01  -5.1751114e-01  -5.0205997e-01  -5.4397708e-01  -5.3714721e-01  -5.1453933e-01  -5.7869848e-01  -5.6743340e-01  -5.7006017e-01  -6.0231303e-01  -6.1085284e-01  -6.1179209e-01  -5.6281513e-01  -6.7757735e-01  -5.9989096e-01  -4.9953615e-01  -5.3177444e-01  -5.1620514e-01  -4.3087794e-01  -3.9023863e-01  -3.4067136e-01  -3.3213102e-01  -1.6150148e-01  -9.1159742e-02  -1.1448518e-01  -6.1399184e-02  -8.2294225e-02  -8.1907035e-02   1.6011451e-02  -1.8753254e-03   2.8815762e-03   6.2028070e-03  -1.6986434e-02  -8.3279840e-03  -4.9313412e-02  -2.3326079e-02  -4.9651738e-02  -6.9359132e-02   2.6181690e-02  -9.4283435e-03  -6.2643975e-02  -2.4095931e-02   7.9999722e-03  -4.1457244e-03   5.5134660e-02   7.1694815e-02   1.6019271e-01   1.2133032e-01   1.0054988e-01   1.6649600e-01   1.2719401e-01   1.9074143e-01   3.5649329e-01   3.7303907e-01   3.8856338e-01   4.4310223e-01   4.8175975e-01   5.0056986e-01   4.9692535e-01   4.9682257e-01   4.7568934e-01   5.2312421e-01   5.0074020e-01   4.4374310e-01   5.3188678e-01   4.9947894e-01   5.0780541e-01   4.9125782e-01   4.9172905e-01   4.2767629e-01   5.0457428e-01   5.1044972e-01   6.0472611e-01   7.2941318e-01   7.9263476e-01   9.2495170e-01   1.0109975e+00   1.1012197e+00   1.3243697e+00   1.5453593e+00   1.8400887e+00   1.8366338e+00   1.7452714e+00   1.6746867e+00   1.5938893e+00   1.4723610e+00   1.2149813e+00   9.4484716e-01   6.8537423e-01   4.3743197e-01   1.0898037e-01   1.9522570e-02   3.1942669e-02   5.3263656e-02   4.0116405e-02   4.6090101e-03   8.6276846e-03   7.8763972e-02  -5.2076465e-02   3.5319183e-02   6.3439388e-02   9.7959361e-02   1.1948913e-01   5.8301285e-02   1.0102369e-01   1.6832296e-01   3.2714617e-01   8.2482880e-01   1.2033016e+00   1.2773495e+00   1.6072346e+00   1.7183793e+00   1.6644319e+00   1.3442387e+00   8.7395181e-01   8.4588602e-01   9.0976200e-01   3.8521000e-01  -1.1285788e+00
   1.0000000e+00   1.8867641e+00   1.7062864e+00  -1.8061285e-01  -1.9929930e+00  -3.3551154e+00  -4.1842387e+00  -3.5970313e+00  -2.2891756e+00  -1.7357151e+00  -1.5494905e+00  -5.1835565e-01  -4.8513182e-02  -1.0835007e-01  -2.1836450e-01  -1.3288327e-01  -2.9215858e-01  -2.9313759e-01  -2.6217205e-01  -1.7130185e-01  -3.2159417e-01  -3.2768838e-01  -4.2992998e-01  -5.0014749e-01  -4.9208744e-01  -5.8205290e-01  -6.2581407e-01  -7.3909033e-01  -6.9350357e-01  -7.8401876e-01  -8.7773581e-01  -7.5334125e-01  -8.1223479e-01  -9.2493273e-01  -1.0575528e+00  -1.0946989e+00  -1.1257818e+00  -1.1751231e+00  -1.2611173e+00  -1.2135415e+00  -1.2005664e+00  -1.2251395e+00  -1.0862035e+00  -1.1215335e+00  -9.6514198e-01  -8.5550443e-01  -7.2784643e-01  -6.3758148e-01  -5.5427778e-01  -4.6741586e-01  -3.1457458e-01  -2.1048229e-01  -2.0332150e-01  -1.3622682e-01  -7.8198030e-02  -1.3623885e-01  -1.0086771e-01   4.1059473e-02   7.2979633e-02   5.5348584e-02   1.6233533e-01   1.5419946e-01   1.2673331e-01   1.9654571e-01   1.6339000e-01   1.3005319e-01   2.3002948e-01   2.1274965e-01   3.1946424e-01   3.3319105e-01   4.3230950e-01   3.5189258e-01   4.8562669e-01   4.8865897e-01   4.1543391e-01   3.9618520e-01   5.4258784e-01   4.8902166e-01   4.2727925e-01   5.0682706e-01   3.7751210e-01   4.3118050e-01   4.4465526e-01   3.9157095e-01   4.3804982e-01   4.5299025e-01   3.7107978e-01   3.5065400e-01   3.2579027e-01   2.8055859e-01   4.0760426e-01   3.9310301e-01   2.8409864e-01   2.1745336e-01   3.5832674e-01   3.6892033e-01   3.1584189e-01   2.8213789e-01   2.7717897e-01   3.0475747e-01   4.5079774e-01   6.5877147e-01   8.5430709e-01   1.0200048e+00   1.1635042e+00   1.2961218e+00   1.1727951e+00   1.4088370e+00   1.6878748e+00   1.6771996e+00   1.3697403e+00   1.1238393e+00   1.0287650e+00   9.4411309e-01   8.6925080e-01   7.0579252e-01   1.8725307e-01  -1.6403281e-01  -1.4415905e-01  -2.3455089e-01  -1.5924007e-01  -1.6279967e-01  -1.4905299e-01  -1.1311531e-01  -1.6544877e-01  -2.4277063e-01  -1.3267294e-01  -1.8128994e-01  -1.6776286e-01  -2.0942611e-01  -1.1643310e-01   7.0988462e-02   3.7416800e-01   9.2324135e-01   8.3156792e-01   1.6252977e+00   2.3004505e+00   2.6195524e+00   2.0231374e+00   1.2921972e+00   2.0054870e+00
   1.0000000e+00  -1.2970004e-01  -2.0197791e+00  -2.7989773e+00  -3.5471201e+00  -4.0148124e+00  -3.9064670e+00  -2.9660144e+00  -1.5668142e+00  -1.0449880e+00  -7.8032988e-01  -8.0125074e-02   1.1597521e-01   2.1629244e-01   2.9556423e-01   2.7152120e-01   2.4217735e-01   1.3121188e-01   1.9984134e-02   9.3115243e-02   1.4601432e-01   1.3512597e-01   1.2990036e-01   5.9844863e-02   9.7489149e-02   5.7211507e-02   8.7743331e-02   4.2595299e-02   1.0080587e-01   3.1833209e-02  -1.8574962e-01  -2.3812368e-01  -1.8452900e-01  -1.7938333e-01  -2.3773444e-01  -1.5915728e-01  -2.6808078e-01  -3.7505531e-01  -2.5958828e-01  -2.4046206e-01  -1.8776239e-01  -1.9154149e-01  -2.0117135e-01  -1.5451793e-01  -8.0069210e-02   1.3972302e-02   1.3417839e-02   7.0094943e-02   4.4348016e-02   9.0250503e-03   1.2398628e-02   5.2892952e-02   2.6200423e-02  -8.3348144e-02  -1.1605959e-01  -4.9337173e-03   5.8417924e-02   6.2165739e-03   3.1694152e-02  -2.2219301e-02  -6.2262128e-02  -2.8112699e-02  -7.0706311e-02  -1.4122990e-02  -6.8936971e-02  -1.0806074e-01   5.2501310e-02  -7.2422743e-02  -6.7537398e-02  -1.9200226e-02  -2.2971491e-02   5.5112439e-02   3.8767234e-02   2.0497134e-01   1.8941905e-01   2.6134396e-01   2.7232430e-01   3.4541738e-01   3.0503631e-01   4.8332684e-01   3.5268327e-01   3.5762593e-01   4.2785619e-01   3.3312087e-01   4.1000522e-01   3.4678312e-01   3.6566696e-01   3.4960154e-01   2.7530316e-01   3.2135267e-01   3.6219972e-01   3.0358844e-01   4.1243854e-01   4.0332239e-01   3.7300113e-01   3.9846237e-01   5.6103498e-01   8.5278179e-01   9.6191068e-01   1.2422216e+00   1.5802825e+00   1.9778752e+00   2.3078315e+00   2.5137992e+00   2.4309996e+00   2.3369005e+00   1.8231863e+00   1.7309256e+00   1.5253537e+00   1.0971835e+00   7.9980770e-01   3.7141760e-01   1.3922504e-02  -4.1445612e-02  -2.1228847e-01  -2.5735760e-01  -4.1997554e-01  -3.8035330e-01  -3.6223413e-01  -2.6369624e-01  -2.7274527e-01  -2.1837969e-01  -2.0879090e-01  -2.3846304e-01  -3.2999420e-01  -3.0152886e-01  -3.2733645e-01  -2.5156069e-01  -7.3952421e-02   3.4197954e-01   1.1194095e+00   1.8234238e+00   1.3576427e+00   6.8179935e-01  -2.1433716e-01  -1.1310369e+00  -1.8685909e+00  -1.9308260e+00  -1.6747890e+00  -7.7635561e-01  -1.5510194e+00
   1.0000000e+00  -1.4254961e+00  -2.9523682e+00  -3.7563233e+00  -3.7924283e+00  -3.7579115e+00  -3.5792949e+00  -3.0088019e+00  -2.1377259e+00  -1.7348775e+00  -1.2975300e+00  -7.4701663e-01  -6.7051979e-01  -6.9128497e-01  -6.2816589e-01  -6.7555789e-01  -6.6451796e-01  -5.5329994e-01  -6.1491822e-01  -5.5425269e-01  -6.9713334e-01  -6.8624050e-01  -5.4480722e-01  -5.0222538e-01  -4.8176115e-01  -6.0151444e-01  -5.4987926e-01  -5.6039084e-01  -4.7539286e-01  -4.8448622e-01  -7.0351391e-01  -6.0331540e-01  -5.1950559e-01  -5.0555725e-01  -4.4372821e-01  -2.7619379e-01  -3.8813786e-01  -3.0590264e-01  -2.9655456e-01  -3.0612205e-01  -2.7987388e-01  -1.7632936e-01  -1.8846174e-01  -2.7122880e-01  -2.4822675e-01   9.6515560e-03   9.0198290e-02   3.9321058e-02   1.5165643e-01   1.3858929e-01   1.2778232e-01   1.0959705e-01   1.1069976e-01   2.1242900e-01   1.6149151e-01   1.2699032e-01   2.0851388e-01   2.4277938e-01   2.1075093e-01   1.5753844e-01   1.3302931e-01   1.6306342e-01   1.8284407e-01   2.5318849e-01   1.7093048e-01   1.5763005e-01   3.2242522e-01   2.1143637e-01   2.9858943e-01   2.4080921e-01   2.2534752e-01   2.8331548e-01   3.9208848e-01   5.3181767e-01   5.0530950e-01   3.6562212e-01   2.7310458e-01   4.1350686e-01   4.9916980e-01   4.8731832e-01   4.5580007e-01   4.2070744e-01   4.8688318e-01   4.1143719e-01   4.7789900e-01   5.0738314e-01   4.3707206e-01   4.2863600e-01   3.3256841e-01   3.4106131e-01   4.0046317e-01   4.1564686e-01   4.9961167e-01   4.6192936e-01   5.5263513e-01   5.2319714e-01   5.4141760e-01   7.6782940e-01   1.0361026e+00   1.2425393e+00   1.3766626e+00   1.6021694e+00   1.7431479e+00   1.8002751e+00   1.8008681e+00   1.7279910e+00   1.5877531e+00   1.6297793e+00   1.5030316e+00   1.2429862e+00   1.1341519e+00   7.6262293e-01   5.1591808e-01   3.4834895e-01   1.7990786e-01   1.4252918e-01   1.0956697e-01   1.5025653e-01   2.3190875e-01   7.3193471e-02   6.1498841e-02   5.4808219e-02   1.8523873e-01   2.9323080e-01   3.1049735e-01   3.2010840e-01   2.3775572e-01   1.7315548e-01   3.1827269e-01   4.0640687e-01   6.2340853e-01   1.2563114e+00   1.4640780e+00   1.1661721e+00   5.6891413e-01  -1.5986557e-01  -6.2748347e-01  -5.6810376e-01  -1.9037477e-01   2.9969382e-01  -4.6737344e-01
   1.0000000e+00  -3.4090954e-01  -1.7110015e+00  -3.4240738e+00  -2.1528350e+00  -1.7474247e+00  -1.4060322e+00  -4.0740913e-01  -1.7535639e+00  -2.4333543e+00  -8.9266452e-01   6.7462169e-01   4.5153755e-01   4.6551865e-01  -7.6130454e-02  -6.6425348e-01  -1.2081157e+00  -5.1115022e-01   1.6387124e+00  -6.4745486e-01  -1.6698666e+00  -7.4038664e-01  -6.9924298e-01   3.7227637e-01   1.6178595e-01  -1.1726400e+00  -7.1848908e-01   1.8095423e+00   1.0359525e-02  -1.1241659e+00   6.2170784e-01   9.8617436e-02   2.7461988e-01  -9.5071744e-01  -2.4924403e+00  -4.5715270e-01  -4.1290265e-01  -8.1975673e-01  -7.3656785e-01   1.2451721e+00   2.4027318e-01  -1.7126340e+00  -5.7254915e-01  -7.6724390e-02  -2.1620712e-01  -1.7291799e+00   5.3277971e-01   1.7531018e+00  -1.0629718e+00  -6.1666085e-01   1.1318439e+00   9.3353562e-01  -9.7529073e-01  -1.2232098e+00   1.3945194e-01   1.2996751e-01  -5.5554052e-02   1.0037703e+00  -1.1941573e+00  -7.1397915e-02   6.2085587e-01  -7.7222205e-01   3.6658856e-01   1.0853388e+00   3.6862009e-02   8.9183199e-02  -2.8491993e-02   2.1308086e-01   8.3759610e-01   7.9837423e-03  -9.7546195e-02  -3.4055232e-01   2.3007449e-01   2.1089882e-01   1.1785045e+00   2.0617355e-01  -5.0637300e-01   3.6012109e-01   1.6505254e-01   7.7278449e-01   7.3317844e-01   4.8227372e-01  -2.5639033e-02  -2.5015102e-01  -2.6926080e-01   2.8320445e-01   9.2129948e-01   1.4217527e+00   7.1046850e-01  -1.2510366e+00  -4.9944257e-01   3.8856213e-01   4.5532640e-01   4.0344429e-01   4.7610599e-01   6.0117080e-02   2.1324589e-01   8.9100884e-01   1.9840868e-01   4.6459082e-01   7.4176549e-01   6.4078734e-01   1.0137924e+00   1.3850456e+00   2.2356434e-01   1.7872519e+00   2.9593237e+00   1.0667143e-01  -4.0214704e-01   1.0159460e+00   1.4283550e+00   7.3060459e-01   9.0340466e-01   6.0647692e-01  -1.3580252e-02  -1.0316801e+00   4.2430104e-01   9.0641245e-01  -1.9263364e+00  -3.3216794e-01   4.4815071e-01  -1.6872166e-01  -3.9027819e-01   2.1364435e-01   6.9924183e-01  -5.4796628e-01  -1.1666266e+00  -4.0995402e-01   1.1178553e+00   1.2067864e+00  -1.9084579e+00  -5.1492214e-01   1.7912186e+00   1.3759220e+00   5.6148132e-01   1.3251821e+00   4.6330121e-01  -5.6276386e-01   7.3316969e-01   5.0662582e-01   8.0399311e-01
   1.0000000e+00  -6.8188335e-01  -2.9989868e+00  -3.9900206e+00  -4.2534212e+00  -3.1326141e+00  -1.7908676e+00  -8.2982197e-01  -9.7679850e-01  -6.6062754e-01   3.6016003e-01  -1.1156635e-01  -3.4474166e-01   1.2868452e-01   4.3084060e-01   6.3646133e-01   7.3261858e-01   5.3867456e-01  -1.3911263e-01  -3.2187556e-01  -5.9050246e-01  -4.5964977e-01   8.4088172e-01   1.6692930e+00   9.8840052e-01   2.1232904e-02  -8.2141410e-01  -2.4149577e-01   8.2199708e-02  -7.5550941e-01  -3.3107236e-01   2.1990034e-01  -4.3567631e-01   1.0169924e-01   1.0272502e+00   2.9300195e-02  -4.6097353e-03   5.4420475e-01  -3.0895085e-02  -5.8771985e-01  -9.5634067e-01  -5.3109019e-01   7.8950027e-01  -2.1052168e-01  -1.3614411e+00   6.6665978e-02   9.4986205e-01   4.1543963e-01  -3.7812556e-01  -8.7939780e-02   4.5241610e-01  -5.0513118e-01  -3.3064689e-02   1.1068021e+00   6.8288254e-01   2.6751435e-02   1.0354984e-01   4.7710520e-01  -9.2761027e-02  -8.0981141e-01   3.3043464e-02   5.8674239e-01  -9.6468327e-01  -1.5684267e+00   6.8029304e-01   1.8676997e+00   1.1850197e+00   3.7917870e-01   1.5015839e-01   3.4437000e-01   4.6439088e-01   8.0721888e-02  -5.5446313e-01  -3.8309332e-01   4.4498464e-01   1.1242911e+00   9.3439189e-01   4.4018316e-01  -1.6754161e-01  -9.3940551e-02   5.6759523e-01   3.7696317e-01   7.1577582e-01   1.3398885e+00   1.0330645e+00   4.8466223e-01   3.0743120e-01   1.2424402e-01   3.0657978e-01  -1.0874639e-01  -2.9772450e-01   2.1263843e-01   6.8390313e-02  -5.6982695e-01  -4.3523576e-01   3.0076840e-01   1.0345265e-01   9.2338249e-01   1.9588485e+00   6.7056462e-01   9.8585836e-01   2.4426605e+00   2.0515595e+00   1.4336853e+00   1.0938067e+00   1.1976687e+00   1.6072202e+00   1.3991626e+00   5.1031293e-01   4.6629494e-01   5.3902495e-01  -7.6822104e-01  -1.2258936e-01   8.7836639e-01   7.4623571e-01   3.1350161e-01  -2.3345816e-01  -1.2968371e+00  -1.0631664e+00  -6.1709569e-01  -8.1062221e-01  -3.2599815e-01  -2.6822299e-01  -7.9910345e-01  -9.9739072e-01  -9.1594383e-01  -1.2111292e+00  -1.8167382e+00  -4.8029969e-01   6.6018366e-01   5.5809564e-01   8.3244796e-01   3.1343241e-02  -1.0219311e+00  -5.0941914e-01   2.5128408e-01  -7.3312512e-03  -8.7802468e-01  -2.0956612e-01   3.0469617e-01  -9.8202467e-01
   1.0000000e+00   1.0661338e+00  -1.5411173e+00  -2.8658470e+00  -3.8965621e+00  -4.4329465e+00  -3.8470427e+00  -2.3719621e+00  -1.5093014e+00  -1.4879623e+00  -6.6176405e-01  -1.0864674e-01  -1.5129155e-01  -1.1958803e-01  -9.5153922e-02  -1.8355558e-01  -1.5968484e-01  -2.0210802e-01  -2.3818146e-01  -2.1554695e-01  -2.2472257e-01  -1.9958040e-01  -2.8453256e-01  -2.4870030e-01  -3.6851644e-01  -3.4466998e-01  -3.9345253e-01  -5.0746327e-01  -5.1557697e-01  -5.8829455e-01  -6.2197467e-01  -6.0314172e-01  -7.0065654e-01  -9.0494003e-01  -9.8466236e-01  -9.4282562e-01  -9.7527690e-01  -8.0595042e-01  -8.6685062e-01  -8.4552742e-01  -7.9329477e-01  -6.8607964e-01  -7.1863882e-01  -6.0658875e-01  -3.5997620e-01  -3.9146622e-01  -2.9255468e-01  -2.6524082e-01  -1.7996203e-01  -1.0301488e-01  -3.5213600e-02   2.5534613e-02  -5.9657805e-02  -5.7524690e-02  -2.3492372e-02  -1.3976742e-02   9.1595149e-02   5.5151328e-02   1.5234222e-01   7.6773202e-02   4.2051733e-02   2.2234020e-01   2.4039238e-01   2.8653597e-01   3.1159292e-01   3.3566270e-01   4.0417077e-01   4.2766982e-01   3.8018504e-01   3.4397896e-01   5.2598801e-01   5.9470359e-01   5.6473989e-01   5.6111838e-01   5.6765537e-01   5.1243003e-01   5.5205926e-01   5.8176353e-01   5.0760934e-01   4.6949411e-01   5.5544380e-01   3.9656804e-01   4.0940964e-01   5.2365832e-01   3.9392360e-01   3.8619853e-01   3.4150635e-01   3.9358274e-01   3.6376563e-01   2.7240536e-01   3.1101329e-01   1.7173453e-01   2.5012098e-01   2.8613431e-01   2.9176796e-01   2.8366555e-01   2.0904383e-01   3.4390641e-01   4.8116451e-01   7.5023708e-01   1.0844083e+00   1.2413579e+00   1.4770879e+00   1.6120294e+00   1.9237768e+00   2.1658202e+00   1.9109230e+00   1.8838222e+00   1.8059402e+00   1.5098476e+00   1.2223261e+00   8.3175039e-01   5.7636927e-01   1.4562346e-02  -4.1171046e-01  -4.7324626e-01  -4.8308367e-01  -4.0889568e-01  -4.3631090e-01  -4.5503019e-01  -4.5280563e-01  -4.4264434e-01  -4.6339102e-01  -3.7878216e-01  -5.2905414e-01  -3.9945218e-01  -5.1370225e-01  -5.1100271e-01  -4.4384118e-01  -2.1367770e-01  -9.4131694e-02   3.7462842e-01   9.0226974e-01   8.2830562e-01   1.1682613e+00   1.4901028e+00   1.2217292e+00   1.2559312e+00   1.0125238e+00   2.1316414e+00   7.5268499e-01
   1.0000000e+00  -4.6884197e-01  -1.7881537e+00  -3.1188645e+00  -3.9937770e+00  -4.4051729e+00  -4.0492101e+00  -3.4419947e+00  -2.3566315e+00  -1.3525443e+00  -1.1543617e+00  -6.2167178e-01  -1.6987843e-01  -2.5255722e-01  -2.3814129e-01  -2.1724142e-01  -2.4842052e-01  -3.1426479e-01  -2.5116188e-01  -2.8997744e-01  -2.0822842e-01  -3.0375514e-01  -2.8241026e-01  -1.7131851e-01  -2.7809649e-01  -3.9058136e-01  -4.7489898e-01  -3.4214381e-01  -2.5839377e-01  -2.5320110e-01  -1.6116002e-01  -3.7111503e-02  -2.5930391e-01  -2.7181637e-01  -2.1782483e-01  -2.4647400e-01  -2.4585724e-01  -3.6633947e-01  -1.8614266e-01  -1.2941128e-01  -1.7467040e-01  -2.1508086e-01  -5.2801835e-02  -6.5706014e-02  -9.0324381e-02  -5.8874697e-03  -3.0412898e-02   5.5523162e-02   9.0912231e-02   1.9572466e-01   1.4972977e-01  -1.8652601e-02   1.4499419e-01   9.3002234e-02   3.0346102e-01   2.1617919e-01   1.5542093e-01   6.9791454e-02   1.3326820e-01   1.4379848e-01   2.5845702e-02   9.2808492e-02  -4.9179703e-02  -6.6776964e-02   6.6758826e-03   4.3885855e-02   9.5751488e-02  -2.5594785e-02   5.5350822e-02   1.4149373e-01   1.6483113e-01   2.0982809e-01   2.5157226e-01   1.9590055e-01   4.7397477e-01   5.1012499e-01   3.2098947e-01   4.3828714e-01   5.0270388e-01   4.1146232e-01   4.2173451e-01   4.8473192e-01   3.5171909e-01   3.0353897e-01   3.7530519e-01   5.0374264e-01   4.6706697e-01   3.8394482e-01   3.9189529e-01   3.7201151e-01   5.6246219e-01   5.5079770e-01   3.8089455e-01   3.4914778e-01   4.3562154e-01   5.8540477e-01   8.6035468e-01   8.9150678e-01   1.0449242e+00   1.2376964e+00   1.4922852e+00   1.8544710e+00   2.2273818e+00   2.3473219e+00   2.1306776e+00   1.9825373e+00   1.6621127e+00   1.5202386e+00   1.2842922e+00   1.0497546e+00   6.2755642e-01   2.8493496e-01   1.6381884e-02  -1.4737650e-01  -1.6711136e-01  -3.9719137e-01  -4.0289087e-01  -1.4701635e-01  -2.2847421e-01  -1.5988723e-01  -2.1686028e-01  -1.3517571e-01  -8.6748544e-02  -2.0389267e-01  -1.9242744e-01  -1.9732951e-01  -2.1426967e-01  -1.0264373e-01  -1.1376148e-01   1.1581126e-01   6.7730571e-01   1.3117765e+00   1.4336682e+00   1.1456226e+00   8.2380271e-01   1.9999833e-01  -2.7304031e-01  -6.3827106e-01  -9.5418144e-01  -5.5239421e-01  -6.9235678e-01
   1.0000000e+00   6.3533597e-01  -8.3901437e-01  -2.6314689e+00  -3.5101825e+00  -4.1752567e+00  -3.9936500e+00  -2.9188522e+00  -1.8680128e+00  -1.7880475e+00  -9.1491886e-01  -1.9400085e-01  -2.7535017e-01  -1.7020340e-01  -1.9745543e-01  -2.4970776e-01  -3.2569274e-01  -2.5934858e-01  -2.7890170e-01  -3.6712592e-01  -4.5014807e-01  -4.1983000e-01  -4.5262274e-01  -4.9018871e-01  -5.3207898e-01  -5.6635230e-01  -5.5173718e-01  -6.8543098e-01  -6.3413293e-01  -7.7611294e-01  -8.3693490e-01  -7.9606984e-01  -7.9601627e-01  -8.3394961e-01  -9.3062175e-01  -9.9778030e-01  -9.7247645e-01  -9.5388127e-01  -9.8683238e-01  -9.4764870e-01  -8.7197672e-01  -8.6664109e-01  -7.9275888e-01  -6.3694919e-01  -5.8560035e-01  -4.9584906e-01  -4.2559139e-01  -3.7741111e-01  -2.2621595e-01  -2.7598136e-01  -1.1989921e-01  -1.7818718e-01  -2.5106011e-02  -1.1858443e-01  -1.6260038e-02  -1.1335398e-01  -1.1972342e-01   9.7404271e-02   3.5317254e-02   4.0450476e-02   8.9580763e-02   1.1424481e-01   6.6967593e-02   1.0795193e-01   8.8675465e-02   1.8565988e-01   2.4469232e-01   3.4388368e-01   4.6013113e-01   4.1195830e-01   5.0928774e-01   4.6352592e-01   6.2765842e-01   5.7578190e-01   6.6438565e-01   7.2978542e-01   7.1016194e-01   7.3639960e-01   6.4433514e-01   7.7609355e-01   7.0286303e-01   6.6765415e-01   5.5101740e-01   6.0214093e-01   5.6349499e-01   5.6275917e-01   5.4085858e-01   4.7183093e-01   5.9092756e-01   5.1092914e-01   5.1043299e-01   4.6111028e-01   4.2545757e-01   4.5259952e-01   4.4141220e-01   3.9270946e-01   3.8395199e-01   3.2111457e-01   4.2792141e-01   4.4160109e-01   6.9257718e-01   8.5828195e-01   1.1470043e+00   1.4022725e+00   1.4729407e+00   1.6240673e+00   1.9575137e+00   2.1485425e+00   2.0952416e+00   1.9392010e+00   1.8423699e+00   1.5104521e+00   1.3138440e+00   1.1069123e+00   6.5457678e-01   2.4306345e-01  -1.4760081e-01  -1.9218467e-01  -2.1726676e-01  -3.4017269e-01  -2.9529709e-01  -1.4785908e-01  -2.5391256e-01  -2.1908694e-01  -2.8029164e-01  -1.9980952e-01  -2.3255389e-01  -2.8972357e-01  -2.1775562e-01  -1.4539759e-01  -7.5232620e-02   5.3667066e-02   6.1669618e-01   9.9604560e-01   1.0397413e+00   1.3329984e+00   1.2200021e+00   1.1072407e+00   3.0726347e-01   3.8114350e-01   6.2215559e-01
